"","Elevation (ft)","Live Storage (ac-ft)","Total Storage (ac-ft)","Area (acres)","EvapVolMax","EvapVolMaxUp","EvapVolMaxLo","EvapVolMin","RangeError","Range"
"1",3370,0,1895000,20303,116336.19,131969.5,99484.7,NA,0.326530612244898,0.0162424
"2",3370.5,10173.99,1905173.99,20392.95,116851.6035,132554.175,99925.455,NA,0.326530612244898,0.01631436
"3",3371,20392.95,1915392.95,20482.9,117367.017,133138.85,100366.21,NA,0.326530612244898,0.01638632
"4",3371.5,30656.89,1925656.89,20572.85,117882.4305,133723.525,100806.965,NA,0.326530612244898,0.01645828
"5",3372,40965.8,1935965.8,20662.8,118397.844,134308.2,101247.72,NA,0.326530612244898,0.01653024
"6",3372.5,51319.69,1946319.69,20752.75,118913.2575,134892.875,101688.475,NA,0.326530612244898,0.0166022
"7",3373,61718.55,1956718.55,20842.7,119428.671,135477.55,102129.23,NA,0.326530612244898,0.01667416
"8",3373.5,72162.39,1967162.39,20932.65,119944.0845,136062.225,102569.985,NA,0.326530612244898,0.01674612
"9",3374,82651.2000004,1977651.2000004,21022.6,120459.498,136646.9,103010.74,NA,0.326530612244898,0.01681808
"10",3374.5,93184.99,1988184.99,21112.55,120974.9115,137231.575,103451.495,NA,0.326530612244898,0.01689004
"11",3375,103763.75,1998763.75,21202.5,121490.325,137816.25,103892.25,NA,0.326530612244898,0.016962
"12",3375.5,114387.49,2009387.49,21292.45,122005.7385,138400.925,104333.005,NA,0.326530612244898,0.01703396
"13",3376,125056.2,2020056.2,21382.4,122521.152,138985.6,104773.76,119562.2454,0.326530612244898,0.01710592
"14",3376.5,135769.89,2030769.89,21472.35,123036.5655,139570.275,105214.515,120077.6616,0.326530612244898,0.01717788
"15",3377,146528.55,2041528.55,21562.3,123551.979,140154.95,105655.27,120593.0724,0.326530612244898,0.01724984
"16",3377.5,157332.19,2052332.19,21652.25,124067.3925,140739.625,106096.025,121108.4886,0.326530612244898,0.0173218
"17",3378,168180.8,2063180.8,21742.2,124582.806,141324.3,106536.78,121623.8994,0.326530612244898,0.01739376
"18",3378.5,179074.39,2074074.39,21832.15,125098.2195,141908.975,106977.535,122139.3156,0.326530612244898,0.01746572
"19",3379,190012.95,2085012.95,21922.1,125613.633,142493.65,107418.29,122654.7264,0.326530612244898,0.01753768
"20",3379.5,200996.49,2095996.49,22012.05,126129.0465,143078.325,107859.045,123170.142599784,0.326530612244898,0.01760964
"21",3380,212025,2107025,22102,126644.46,143663,108299.8,123685.553399816,0.326530612244898,0.0176816
"22",3380.5,223100.75,2118100.75,22201,127211.73,144306.5,108784.9,124203.2296,0.326530612244898,0.0177608
"23",3381,234226,2129226,22300,127779,144950,109270,124725.4304,0.326530612244898,0.01784
"24",3381.5,245400.75,2140400.75,22399,128346.27,145593.5,109755.1,125252.1566,0.326530612244898,0.0179192
"25",3382,256625,2151625,22498,128913.54,146237,110240.2,125783.4074,0.326530612244898,0.0179984
"26",3382.5,267898.75,2162898.75,22597,129480.81,146880.5,110725.3,126319.1836,0.326530612244898,0.0180776
"27",3383,279222,2174222,22696,130048.08,147524,111210.4,126859.4844,0.326530612244898,0.0181568
"28",3383.5,290594.75,2185594.75,22795,130615.35,148167.5,111695.5,127404.3106,0.326530612244898,0.018236
"29",3384,302017,2197017,22894,131182.62,148811,112180.6,127953.6614,0.326530612244898,0.0183152
"30",3384.5,313488.75,2208488.75,22993,131749.89,149454.5,112665.7,128507.5376,0.326530612244898,0.0183944
"31",3385,325010,2220010,23092,132317.16,150098,113150.8,129065.9384,0.326530612244898,0.0184736
"32",3385.5,336580.75,2231580.75,23191,132884.43,150741.5,113635.9,129628.8646,0.326530612244898,0.0185528
"33",3386,348201,2243201,23290,133451.7,151385,114121,130195.095,0.326530612244898,0.018632
"34",3386.5,359870.75,2254870.75,23389,134018.97,152028.5,114606.1,130762.365,0.326530612244898,0.0187112
"35",3387,371590,2266590,23488,134586.24,152672,115091.2,131329.635,0.326530612244898,0.0187904
"36",3387.5,383358.75,2278358.75,23587,135153.51,153315.5,115576.3,131896.905,0.326530612244898,0.0188696
"37",3388,395177,2290177,23686,135720.78,153959,116061.4,132464.175,0.326530612244898,0.0189488
"38",3388.5,407044.75,2302044.75,23785,136288.05,154602.5,116546.5,133031.445,0.326530612244898,0.019028
"39",3389,418962,2313962,23884,136855.32,155246,117031.6,133598.715,0.326530612244898,0.0191072
"40",3389.5,430928.75,2325928.75,23983,137422.59,155889.5,117516.7,134165.985,0.326530612244898,0.0191864
"41",3390,442945,2337945,24082,137989.86,156533,118001.8,134733.255,0.326530612244898,0.0192656
"42",3390.5,455010.75,2350010.75,24181,138557.13,157176.5,118486.9,135300.525,0.326530612244898,0.0193448
"43",3391,467126,2362126,24280,139124.4,157820,118972,135867.795,0.326530612244898,0.019424
"44",3391.5,479290.75,2374290.75,24379,139691.67,158463.5,119457.1,136435.065,0.326530612244898,0.0195032
"45",3392,491505,2386505,24478,140258.94,159107,119942.2,137002.335,0.326530612244898,0.0195824
"46",3392.5,503768.75,2398768.75,24577,140826.21,159750.5,120427.3,137569.605,0.326530612244898,0.0196616
"47",3393,516082,2411082,24676,141393.48,160394,120912.4,138136.875,0.326530612244898,0.0197408
"48",3393.5,528444.75,2423444.75,24775,141960.75,161037.5,121397.5,138704.145,0.326530612244898,0.01982
"49",3394,540857,2435857,24874.0000001,142528.020000573,161681.00000065,121882.60000049,139271.415,0.326530612244898,0.01989920000008
"50",3394.5,553318.75,2448318.75,24973.0000001,143095.290000573,162324.50000065,122367.70000049,139838.685,0.326530612244898,0.01997840000008
"51",3395,565830,2460830,25071.9999999,143662.559999427,162967.99999935,122852.79999951,140405.955,0.326530612244898,0.02005759999992
"52",3395.5,578390.75,2473390.75,25170.9999999,144229.829999427,163611.49999935,123337.89999951,140973.225,0.326530612244898,0.02013679999992
"53",3396,591001,2486001,25270,144797.1,164255,123823,141540.495,0.326530612244898,0.020216
"54",3396.5,603660.75,2498660.75,25369,145364.37,164898.5,124308.1,142107.765,0.326530612244898,0.0202952
"55",3397,616370,2511370,25468.0000001,145931.640000573,165542.00000065,124793.20000049,142675.035,0.326530612244898,0.02037440000008
"56",3397.5,629128.75,2524128.75,25567.0000001,146498.910000573,166185.50000065,125278.30000049,143242.305,0.326530612244898,0.02045360000008
"57",3398,641937,2536937,25665.9999999,147066.179999427,166828.99999935,125763.39999951,143809.575,0.326530612244898,0.02053279999992
"58",3398.5,654794.75,2549794.75,25765,147633.45,167472.5,126248.5,144376.845,0.326530612244898,0.020612
"59",3399,667702,2562702,25864,148200.72,168116,126733.6,144944.115,0.326530612244898,0.0206912
"60",3399.5,680658.75,2575658.75,25963.0000001,148767.990000573,168759.50000065,127218.70000049,145511.385,0.326530612244898,0.02077040000008
"61",3400,693665,2588665,26062.0000001,149335.260000573,169403.00000065,127703.80000049,146078.655,0.326530612244898,0.02084960000008
"62",3400.5,706720.89,2601720.89,26161.5700001,149905.796100573,170050.20500065,128191.69300049,146646.065000001,0.326530612244898,0.02092925600008
"63",3401,719826.57,2614826.57,26261.15,150476.3895,170697.475,128679.635,147213.765,0.326530612244898,0.02100892
"64",3401.5,732982.04,2627982.04,26360.72,151046.9256,171344.68,129167.528,147781.755,0.326530612244898,0.021088576
"65",3402,746187.3,2641187.3,26460.3000001,151617.519000573,171991.95000065,129655.47000049,148350.035,0.326530612244898,0.02116824000008
"66",3402.5,759442.34,2654442.34,26559.8700001,152188.055100573,172639.15500065,130143.36300049,148918.595,0.326530612244898,0.02124789600008
"67",3403,772747.17,2667747.17,26659.45,152758.6485,173286.425,130631.305,149487.445000001,0.326530612244898,0.02132756
"68",3403.5,786101.79,2681101.79,26759.02,153329.1846,173933.63,131119.198,150056.585000001,0.326530612244898,0.021407216
"69",3404,799506.2,2694506.2,26858.6000001,153899.778000573,174580.90000065,131607.14000049,150626.015,0.326530612244898,0.02148688000008
"70",3404.5,812960.39,2707960.39,26958.1700001,154470.314100573,175228.10500065,132095.03300049,151195.725,0.326530612244898,0.02156653600008
"71",3405,826464.370004,2721464.370004,27057.75,155040.9075,175875.375,132582.975,151765.725004,0.326530612244898,0.0216462
"72",3405.5,840018.14,2735018.14,27157.32,155611.4436,176522.58,133070.868,152336.015,0.326530612244898,0.021725856
"73",3406,853621.700003,2748621.700003,27256.9000001,156182.037000573,177169.85000065,133558.81000049,152906.519403,0.326530612244898,0.02180552000008
"74",3406.5,867275.040001,2762275.040001,27356.4700001,156752.573100573,177817.05500065,134046.70300049,153477.082801001,0.326530612244898,0.02188517600008
"75",3407,880978.169999,2775978.169999,27456.0499999,157323.166499427,178464.32499935,134534.64499951,154047.646199001,0.326530612244898,0.02196483999992
"76",3407.5,894731.089997,2789731.089997,27555.6199999,157893.702599427,179111.52999935,135022.53799951,154618.209597,0.326530612244898,0.02204449599992
"77",3408,908533.800002,2803533.800002,27655.2000001,158464.296000573,179758.80000065,135510.48000049,155188.778402,0.326530612244898,0.02212416000008
"78",3408.5,922386.290002,2817386.290002,27754.7700001,159034.832100573,180406.00500065,135998.37300049,155759.341802001,0.326530612244898,0.02220381600008
"79",3409,936288.570001,2831288.570001,27854.3499999,159605.425499427,181053.27499935,136486.31499951,156329.905201,0.326530612244898,0.02228347999992
"80",3409.5,950240.64,2845240.64,27953.9199999,160175.961599427,181700.47999935,136974.20799951,156900.4686,0.326530612244898,0.02236313599992
"81",3410,964242.499999,2859242.499999,28053.5,160746.555,182347.75,137462.15,157471.037399,0.326530612244898,0.0224428
"82",3410.5,978294.140001,2873294.140001,28153.0700001,161317.091100573,182994.95500065,137950.04300049,158041.600798841,0.326530612244898,0.02252245600008
"83",3411,992395.570002,2887395.570002,28252.6499999,161887.684499427,183642.22499935,138437.98499951,158612.16420016,0.326530612244898,0.02260211999992
"84",3411.5,1006546.79,2901546.79,28352.2199999,162458.220599427,184289.42999935,138925.87799951,159182.727598381,0.326530612244898,0.02268177599992
"85",3412,1020747.8,2915747.8,28451.8,163028.814,184936.7,139413.82,159753.296398081,0.326530612244898,0.02276144
"86",3412.5,1034998.59,2929998.59,28551.37,163599.3501,185583.905,139901.713,160323.85980008,0.326530612244898,0.022841096
"87",3413,1049299.17,2944299.17,28650.9499999,164169.943499427,186231.17499935,140389.65499951,160894.42320208,0.326530612244898,0.02292075999992
"88",3413.5,1063649.54,2958649.54,28750.5199999,164740.479599427,186878.37999935,140877.54799951,161464.986600301,0.326530612244898,0.02300041599992
"89",3414,1078049.7,2973049.7,28850.1,165311.073,187525.65,141365.49,162035.555398,0.326530612244898,0.02308008
"90",3414.5,1092499.64,2987499.64,28949.67,165881.6091,188172.855,141853.383,162606.11879854,0.326530612244898,0.023159736
"91",3415,1106999.37,3001999.37,29049.2499999,166452.202499427,188820.12499935,142341.32499951,163176.682199541,0.326530612244898,0.02323939999992
"92",3415.5,1121548.89,3016548.89,29148.8199999,167022.738599427,189467.32999935,142829.21799951,163747.24560054,0.326530612244898,0.02331905599992
"93",3416,1136148.2,3031148.2,29248.4,167593.332,190114.6,143317.16,164317.81439992,0.326530612244898,0.02339872
"94",3416.5,1150797.29,3045797.29,29347.97,168163.8681,190761.805,143805.053,164888.377798461,0.326530612244898,0.023478376
"95",3417,1165496.17,3060496.17,29447.5499999,168734.461499427,191409.07499935,144292.99499951,165458.94119908,0.326530612244898,0.02355803999992
"96",3417.5,1180244.84,3075244.84,29547.1199999,169304.997599427,192056.27999935,144780.88799951,166029.504600001,0.326530612244898,0.02363769599992
"97",3418,1195043.3,3090043.3,29646.7,169875.591,192703.55,145268.83,166600.073400001,0.326530612244898,0.02371736
"98",3418.5,1209891.54,3104891.54,29746.27,170446.1271,193350.755,145756.723,167170.636800001,0.326530612244898,0.023797016
"99",3419,1224789.57,3119789.57,29845.8499999,171016.720499427,193998.02499935,146244.66499951,167741.200200001,0.326530612244898,0.02387667999992
"100",3419.5,1239737.39,3134737.39,29945.4199999,171587.256599427,194645.22999935,146732.55799951,168311.7636,0.326530612244898,0.02395633599992
"101",3420,1254735,3149735,30045,172157.85,195292.5,147220.5,168882.332400001,0.326530612244898,0.024036
"102",3420.5,1269786.59,3164786.59,30161.3500001,172824.535500573,196048.77500065,147790.61500049,169457.095800001,0.326530612244898,0.02412908000008
"103",3421,1284896.35,3179896.35,30277.7000001,173491.221000573,196805.05000065,148360.73000049,170040.239200001,0.326530612244898,0.02422216000008
"104",3421.5,1300064.29,3195064.29,30394.0499999,174157.906499427,197561.32499935,148930.84499951,170631.772600001,0.326530612244898,0.02431523999992
"105",3422,1315290.4,3210290.4,30510.4,174824.592,198317.6,149500.96,171231.6914,0.326530612244898,0.02440832
"106",3422.5,1330574.69,3225574.69,30626.7500001,175491.277500573,199073.87500065,150071.07500049,171840.0048,0.326530612244898,0.02450140000008
"107",3423,1345917.15,3240917.15,30743.0999999,176157.962999427,199830.14999935,150641.18999951,172456.6982,0.326530612244898,0.02459447999992
"108",3423.5,1361317.79,3256317.79,30859.4499999,176824.648499427,200586.42499935,151211.30499951,173081.781600001,0.326530612244898,0.02468755999992
"109",3424,1376776.6,3271776.6,30975.8,177491.334,201342.7,151781.42,173715.2504,0.326530612244898,0.02478064
"110",3424.5,1392293.59,3287293.59,31092.1500001,178158.019500573,202098.97500065,152351.53500049,174357.113800001,0.326530612244898,0.02487372000008
"111",3425,1407868.75,3302868.75,31208.4999999,178824.704999427,202855.24999935,152921.64999951,175007.357200001,0.326530612244898,0.02496679999992
"112",3425.5,1423502.09,3318502.09,31324.8499999,179491.390499427,203611.52499935,153491.76499951,175665.990600001,0.326530612244898,0.02505987999992
"113",3426,1439193.6,3334193.6,31441.2,180158.076,204367.8,154061.88,176330.741400001,0.326530612244898,0.02515296
"114",3426.5,1454943.29,3349943.29,31557.5500001,180824.761500573,205124.07500065,154631.99500049,176997.4296,0.326530612244898,0.02524604000008
"115",3427,1470751.15,3365751.15,31673.8999999,181491.446999427,205880.34999935,155202.10999951,177664.1124,0.326530612244898,0.02533911999992
"116",3427.5,1486617.19,3381617.19,31790.25,182158.1325,206636.625,155772.225,178330.8006,0.326530612244898,0.0254322
"117",3428,1502541.4,3397541.4,31906.6,182824.818,207392.9,156342.34,178997.4834,0.326530612244898,0.02552528
"118",3428.5,1518523.79,3413523.79,32022.9500001,183491.503500573,208149.17500065,156912.45500049,179664.171600001,0.326530612244898,0.02561836000008
"119",3429,1534564.35,3429564.35,32139.2999999,184158.188999427,208905.44999935,157482.56999951,180330.854400001,0.326530612244898,0.02571143999992
"120",3429.5,1550663.09,3445663.09,32255.65,184824.8745,209661.725,158052.685,180997.542600001,0.326530612244898,0.02580452
"121",3430,1566820,3461820,32372,185491.56,210418,158622.8,181664.225400001,0.326530612244898,0.0258976
"122",3430.5,1583035.09,3478035.09,32488.3500001,186158.245500573,211174.27500065,159192.91500049,182330.913600001,0.326530612244898,0.02599068000008
"123",3431,1599308.35,3494308.35,32604.6999999,186824.930999427,211930.54999935,159763.02999951,182997.596400001,0.326530612244898,0.02608375999992
"124",3431.5,1615639.79,3510639.79,32721.05,187491.6165,212686.825,160333.145,183664.284600001,0.326530612244898,0.02617684
"125",3432,1632029.4,3527029.4,32837.4,188158.302,213443.1,160903.26,184330.9674,0.326530612244898,0.02626992
"126",3432.5,1648477.19,3543477.19,32953.7500001,188824.987500573,214199.37500065,161473.37500049,184997.655600001,0.326530612244898,0.02636300000008
"127",3433,1664983.15,3559983.15,33070.0999999,189491.672999427,214955.64999935,162043.48999951,185664.3384,0.326530612244898,0.02645607999992
"128",3433.5,1681547.29,3576547.29,33186.45,190158.3585,215711.925,162613.605,186331.026600001,0.326530612244898,0.02654916
"129",3434,1698169.6,3593169.6,33302.8,190825.044,216468.2,163183.72,186997.709400001,0.326530612244898,0.02664224
"130",3434.5,1714850.09,3609850.09,33419.1500001,191491.729500573,217224.47500065,163753.83500049,187664.3976,0.326530612244898,0.02673532000008
"131",3435,1731588.75,3626588.75,33535.4999999,192158.414999427,217980.74999935,164323.94999951,188331.080400001,0.326530612244898,0.02682839999992
"132",3435.5,1748385.59,3643385.59,33651.85,192825.1005,218737.025,164894.065,188997.768600001,0.326530612244898,0.02692148
"133",3436,1765240.6,3660240.6,33768.2,193491.786,219493.3,165464.18,189664.451400001,0.326530612244898,0.02701456
"134",3436.5,1782153.79,3677153.79,33884.5500001,194158.471500573,220249.57500065,166034.29500049,190331.139600001,0.326530612244898,0.02710764000008
"135",3437,1799125.15,3694125.15,34000.8999999,194825.156999427,221005.84999935,166604.40999951,190997.8224,0.326530612244898,0.02720071999992
"136",3437.5,1816154.69,3711154.69,34117.25,195491.8425,221762.125,167174.525,191664.510600001,0.326530612244898,0.0272938
"137",3438,1833242.4,3728242.4,34233.6,196158.528,222518.4,167744.64,192331.193400001,0.326530612244898,0.02738688
"138",3438.5,1850388.29,3745388.29,34349.9500001,196825.213500573,223274.67500065,168314.75500049,192997.881600001,0.326530612244898,0.02747996000008
"139",3439,1867592.35,3762592.35,34466.2999999,197491.898999427,224030.94999935,168884.86999951,193664.564400001,0.326530612244898,0.02757303999992
"140",3439.5,1884854.59,3779854.59,34582.65,198158.5845,224787.225,169454.985,194331.252600001,0.326530612244898,0.02766612
"141",3440,1902175,3797175,34699,198825.27,225543.5,170025.1,194997.935400001,0.326530612244898,0.0277592
"142",3440.5,1919559.89,3814559.89,34840.5499999,199636.351499427,226463.57499935,170718.69499951,195670.923600001,0.326530612244898,0.02787243999992
"143",3441,1937015.55,3832015.55,34982.1,200447.433,227383.65,171412.29,196356.506400001,0.326530612244898,0.02798568
"144",3441.5,1954541.99,3849541.99,35123.6500001,201258.514500573,228303.72500065,172105.88500049,197054.694600001,0.326530612244898,0.02809892000008
"145",3442,1972139.2,3867139.2,35265.1999999,202069.595999427,229223.79999935,172799.47999951,197765.4774,0.326530612244898,0.02821215999992
"146",3442.5,1989807.19,3884807.19,35406.75,202880.6775,230143.875,173493.075,198488.865600001,0.326530612244898,0.0283254
"147",3443,2007545.95,3902545.95,35548.2999999,203691.758999427,231063.94999935,174186.66999951,199224.848400001,0.326530612244898,0.02843863999992
"148",3443.5,2025355.49,3920355.49,35689.85,204502.8405,231984.025,174880.265,199973.436600001,0.326530612244898,0.02855188
"149",3444,2043235.8,3938235.8,35831.4000001,205313.922000573,232904.10000065,175573.86000049,200734.619400001,0.326530612244898,0.02866512000008
"150",3444.5,2061186.89,3956186.89,35972.95,206125.0035,233824.175,176267.455,201508.407600001,0.326530612244898,0.02877836
"151",3445,2079208.75,3974208.75,36114.5000001,206936.085000573,234744.25000065,176961.05000049,202294.790400001,0.326530612244898,0.02889160000008
"152",3445.5,2097301.39,3992301.39,36256.0499999,207747.166499427,235664.32499935,177654.64499951,203093.778600001,0.326530612244898,0.02900483999992
"153",3446,2115464.8,4010464.8,36397.6,208558.248,236584.4,178348.24,203901.959400001,0.326530612244898,0.02911808
"154",3446.5,2133698.99,4028698.99,36539.1500001,209369.329500573,237504.47500065,179041.83500049,204713.043600001,0.326530612244898,0.02923132000008
"155",3447,2152003.95,4047003.95,36680.7,210180.411,238424.55,179735.43,205524.122400001,0.326530612244898,0.02934456
"156",3447.5,2170379.69,4065379.69,36822.2500001,210991.492500573,239344.62500065,180429.02500049,206335.206600001,0.326530612244898,0.02945780000008
"157",3448,2188826.2,4083826.2,36963.7999999,211802.573999427,240264.69999935,181122.61999951,207146.285400001,0.326530612244898,0.02957103999992
"158",3448.5,2207343.49,4102343.49,37105.35,212613.6555,241184.775,181816.215,207957.369600001,0.326530612244898,0.02968428
"159",3449,2225931.55,4120931.55,37246.8999999,213424.736999427,242104.84999935,182509.80999951,208768.448400001,0.326530612244898,0.02979751999992
"160",3449.5,2244590.39,4139590.39,37388.45,214235.8185,243024.925,183203.405,209579.532600001,0.326530612244898,0.02991076
"161",3450,2263320,4158320,37530.0000001,215046.900000573,243945.00000065,183897.00000049,210390.611400001,0.326530612244898,0.03002400000008
"162",3450.5,2282120.39,4177120.39,37671.5499999,215857.981499427,244865.07499935,184590.59499951,211201.695600001,0.326530612244898,0.03013723999992
"163",3451,2300991.55,4195991.55,37813.1,216669.063,245785.15,185284.19,212012.7744,0.326530612244898,0.03025048
"164",3451.5,2319933.49,4214933.49,37954.6499999,217480.144499427,246705.22499935,185977.78499951,212823.858600001,0.326530612244898,0.03036371999992
"165",3452,2338946.2,4233946.2,38096.2,218291.226,247625.3,186671.38,213634.937400001,0.326530612244898,0.03047696
"166",3452.5,2358029.69,4253029.69,38237.7500001,219102.307500573,248545.37500065,187364.97500049,214446.021600001,0.326530612244898,0.03059020000008
"167",3453,2377183.95,4272183.95,38379.2999999,219913.388999427,249465.44999935,188058.56999951,215257.100400001,0.326530612244898,0.03070343999992
"168",3453.5,2396408.99,4291408.99,38520.85,220724.4705,250385.525,188752.165,216068.184600001,0.326530612244898,0.03081668
"169",3454,2415704.8,4310704.8,38662.3999999,221535.551999427,251305.59999935,189445.75999951,216879.2634,0.326530612244898,0.03092991999992
"170",3454.5,2435071.39,4330071.39,38803.95,222346.6335,252225.675,190139.355,217690.347600001,0.326530612244898,0.03104316
"171",3455,2454508.75,4349508.75,38945.5000001,223157.715000573,253145.75000065,190832.95000049,218501.426400001,0.326530612244898,0.03115640000008
"172",3455.5,2474016.89,4369016.89,39087.05,223968.7965,254065.825,191526.545,219312.510600001,0.326530612244898,0.03126964
"173",3456,2493595.8,4388595.8,39228.6000001,224779.878000573,254985.90000065,192220.14000049,220123.5894,0.326530612244898,0.03138288000008
"174",3456.5,2513245.49,4408245.49,39370.1499999,225590.959499427,255905.97499935,192913.73499951,220934.673600001,0.326530612244898,0.03149611999992
"175",3457,2532965.95,4427965.95,39511.7,226402.041,256826.05,193607.33,221745.752400001,0.326530612244898,0.03160936
"176",3457.5,2552757.19,4447757.19,39653.2500001,227213.122500573,257746.12500065,194300.92500049,222556.836600001,0.326530612244898,0.03172260000008
"177",3458,2572619.2,4467619.2,39794.8,228024.204,258666.2,194994.52,223367.915400001,0.326530612244898,0.03183584
"178",3458.5,2592551.99,4487551.99,39936.3500001,228835.285500573,259586.27500065,195688.11500049,224178.999600001,0.326530612244898,0.03194908000008
"179",3459,2612555.55,4507555.55,40077.8999999,229646.366999427,260506.34999935,196381.70999951,224990.0784,0.326530612244898,0.03206231999992
"180",3459.5,2632629.89,4527629.89,40219.45,230457.4485,261426.425,197075.305,225801.162600001,0.326530612244898,0.03217556
"181",3460,2652775,4547775,40360.9999999,231268.529999427,262346.49999935,197768.89999951,226612.241400001,0.326530612244898,0.03228879999992
"182",3460.5,2672992.46,4567992.46,40508.8500001,232115.710500573,263307.52500065,198493.36500049,227424.8956,0.326530612244898,0.03240708000008
"183",3461,2693283.85,4588283.85,40656.7000001,232962.891000573,264268.55000065,199217.83000049,228240.704400001,0.326530612244898,0.03252536000008
"184",3461.5,2713649.16,4608649.16,40804.5500001,233810.071500573,265229.57500065,199942.29500049,229059.658600001,0.326530612244898,0.03264364000008
"185",3462,2734088.4,4629088.4,40952.4000001,234657.252000573,266190.60000065,200666.76000049,229881.767400001,0.326530612244898,0.03276192000008
"186",3462.5,2754601.56,4649601.56,41100.2500001,235504.432500573,267151.62500065,201391.22500049,230707.021600001,0.326530612244898,0.03288020000008
"187",3463,2775188.65,4670188.65,41248.1,236351.613,268112.65,202115.69,231535.4304,0.326530612244898,0.03299848
"188",3463.5,2795849.66,4690849.66,41395.95,237198.7935,269073.675,202840.155,232366.984600001,0.326530612244898,0.03311676
"189",3464,2816584.6,4711584.6,41543.8,238045.974,270034.7,203564.62,233201.693400001,0.326530612244898,0.03323504
"190",3464.5,2837393.46,4732393.46,41691.65,238893.1545,270995.725,204289.085,234039.547600001,0.326530612244898,0.03335332
"191",3465,2858276.25,4753276.25,41839.5,239740.335,271956.75,205013.55,234880.556400001,0.326530612244898,0.0334716
"192",3465.5,2879232.96,4774232.96,41987.35,240587.5155,272917.775,205738.015,235724.710600001,0.326530612244898,0.03358988
"193",3466,2900263.6,4795263.6,42135.2,241434.696,273878.8,206462.48,236571.171600001,0.326530612244898,0.03370816
"194",3466.5,2921368.16,4816368.16,42283.05,242281.8765,274839.825,207186.945,237418.349400001,0.326530612244898,0.03382644
"195",3467,2942546.65,4837546.65,42430.8999999,243129.056999427,275800.84999935,207911.40999951,238265.532600001,0.326530612244898,0.03394471999992
"196",3467.5,2963799.06,4858799.06,42578.7499999,243976.237499427,276761.87499935,208635.87499951,239112.710400001,0.326530612244898,0.03406299999992
"197",3468,2985125.4,4880125.4,42726.5999999,244823.417999427,277722.89999935,209360.33999951,239959.893600001,0.326530612244898,0.03418127999992
"198",3468.5,3006525.66,4901525.66,42874.4499999,245670.598499427,278683.92499935,210084.80499951,240807.071400001,0.326530612244898,0.03429955999992
"199",3469,3027999.85,4922999.85,43022.2999999,246517.778999427,279644.94999935,210809.26999951,241654.254600001,0.326530612244898,0.03441783999992
"200",3469.5,3049547.96,4944547.96,43170.1499999,247364.959499427,280605.97499935,211533.73499951,242501.432400001,0.326530612244898,0.03453611999992
"201",3470,3071170,4966170,43318.0000001,248212.140000573,281567.00000065,212258.20000049,243348.615600001,0.326530612244898,0.03465440000008
"202",3470.5,3092865.96,4987865.96,43465.8500001,249059.320500573,282528.02500065,212982.66500049,244195.793400001,0.326530612244898,0.03477268000008
"203",3471,3114635.85,5009635.85,43613.7000001,249906.501000573,283489.05000065,213707.13000049,245042.976600001,0.326530612244898,0.03489096000008
"204",3471.5,3136479.66,5031479.66,43761.5500001,250753.681500573,284450.07500065,214431.59500049,245890.154400001,0.326530612244898,0.03500924000008
"205",3472,3158397.4,5053397.4,43909.4000001,251600.862000573,285411.10000065,215156.06000049,246737.337600001,0.326530612244898,0.03512752000008
"206",3472.5,3180389.06,5075389.06,44057.2500001,252448.042500573,286372.12500065,215880.52500049,247584.515400001,0.326530612244898,0.03524580000008
"207",3473,3202454.65,5097454.65,44205.1,253295.223,287333.15,216604.99,248431.698600001,0.326530612244898,0.03536408
"208",3473.5,3224594.16,5119594.16,44352.95,254142.4035,288294.175,217329.455,249278.876400001,0.326530612244898,0.03548236
"209",3474,3246807.6,5141807.6,44500.8,254989.584,289255.2,218053.92,250126.059600001,0.326530612244898,0.03560064
"210",3474.5,3269094.96,5164094.96,44648.65,255836.7645,290216.225,218778.385,250973.2374,0.326530612244898,0.03571892
"211",3475,3291456.25,5186456.25,44796.5,256683.945,291177.25,219502.85,251820.420600001,0.326530612244898,0.0358372
"212",3475.5,3313891.46,5208891.46,44944.35,257531.1255,292138.275,220227.315,252667.598400001,0.326530612244898,0.03595548
"213",3476,3336400.6,5231400.6,45092.2,258378.306,293099.3,220951.78,253514.781600001,0.326530612244898,0.03607376
"214",3476.5,3358983.66,5253983.66,45240.05,259225.4865,294060.325,221676.245,254361.959400001,0.326530612244898,0.03619204
"215",3477,3381640.65,5276640.65,45387.8999999,260072.666999427,295021.34999935,222400.70999951,255209.1426,0.326530612244898,0.03631031999992
"216",3477.5,3404371.56,5299371.56,45535.7499999,260919.847499427,295982.37499935,223125.17499951,256056.320400001,0.326530612244898,0.03642859999992
"217",3478,3427176.4,5322176.4,45683.5999999,261767.027999427,296943.39999935,223849.63999951,256903.503600001,0.326530612244898,0.03654687999992
"218",3478.5,3450055.16,5345055.16,45831.4499999,262614.208499427,297904.42499935,224574.10499951,257750.681400001,0.326530612244898,0.03666515999992
"219",3479,3473007.85,5368007.85,45979.2999999,263461.388999427,298865.44999935,225298.56999951,258597.864600001,0.326530612244898,0.03678343999992
"220",3479.5,3496034.46,5391034.46,46127.1500001,264308.569500573,299826.47500065,226023.03500049,259445.042400001,0.326530612244898,0.03690172000008
"221",3480,3519135,5414135,46275.0000001,265155.750000573,300787.50000065,226747.50000049,260292.225600001,0.326530612244898,0.03702000000008
"222",3480.5,3542310.69,5437310.69,46427.7699999,266031.122099427,301780.50499935,227496.07299951,261140.633400001,0.326530612244898,0.03714221599992
"223",3481,3565562.77,5460562.77,46580.5499999,266906.551499427,302773.57499935,228244.69499951,261991.506600001,0.326530612244898,0.03726443999992
"224",3481.5,3588891.24,5483891.24,46733.32,267781.9236,303766.58,228993.268,262844.844400001,0.326530612244898,0.037386656
"225",3482,3612296.1,5507296.1,46886.0999999,268657.352999427,304759.64999935,229741.88999951,263700.647600001,0.326530612244898,0.03750887999992
"226",3482.5,3635777.34,5530777.34,47038.87,269532.7251,305752.655,230490.463,264558.905400001,0.326530612244898,0.037631096
"227",3483,3659334.97,5554334.97,47191.65,270408.1545,306745.725,231239.085,265419.628600001,0.326530612244898,0.03775332
"228",3483.5,3682968.99,5577968.99,47344.42,271283.5266,307738.73,231987.658,266282.816400001,0.326530612244898,0.037875536
"229",3484,3706679.4,5601679.4,47497.2,272158.956,308731.8,232736.28,267148.469600001,0.326530612244898,0.03799776
"230",3484.5,3730466.19,5625466.19,47649.9700001,273034.328100573,309724.80500065,233484.85300049,268016.577400001,0.326530612244898,0.03811997600008
"231",3485,3754329.37,5649329.37,47802.75,273909.7575,310717.875,234233.475,268887.150600001,0.326530612244898,0.0382422
"232",3485.5,3778268.94,5673268.94,47955.5200001,274785.129600573,311710.88000065,234982.04800049,269760.188400001,0.326530612244898,0.03836441600008
"233",3486,3802284.9,5697284.9,48108.3000001,275660.559000573,312703.95000065,235730.67000049,270635.027400001,0.326530612244898,0.03848664000008
"234",3486.5,3826377.24,5721377.24,48261.0699999,276535.931099427,313696.95499935,236479.24299951,271510.426800001,0.326530612244898,0.03860885599992
"235",3487,3850545.97,5745545.97,48413.8500001,277411.360500573,314690.02500065,237227.86500049,272385.826200001,0.326530612244898,0.03873108000008
"236",3487.5,3874791.09,5769791.09,48566.6199999,278286.732599427,315683.02999935,237976.43799951,273261.2256,0.326530612244898,0.03885329599992
"237",3488,3899112.6,5794112.6,48719.3999999,279162.161999427,316676.09999935,238725.05999951,274136.630400001,0.326530612244898,0.03897551999992
"238",3488.5,3923510.49,5818510.49,48872.17,280037.5341,317669.105,239473.633,275012.029800001,0.326530612244898,0.039097736
"239",3489,3947984.77,5842984.77,49024.9499999,280912.963499427,318662.17499935,240222.25499951,275887.429200001,0.326530612244898,0.03921995999992
"240",3489.5,3972535.44,5867535.44,49177.72,281788.3356,319655.18,240970.828,276762.828600001,0.326530612244898,0.039342176
"241",3490,3997162.5,5892162.5,49330.4999999,282663.764999427,320648.24999935,241719.44999951,277638.233400001,0.326530612244898,0.03946439999992
"242",3490.5,4021865.94,5916865.94,49483.27,283539.1371,321641.255,242468.023,278513.632800001,0.326530612244898,0.039586616
"243",3491,4046645.77,5941645.77,49636.05,284414.5665,322634.325,243216.645,279389.032200001,0.326530612244898,0.03970884
"244",3491.5,4071501.99,5966501.99,49788.8200001,285289.938600573,323627.33000065,243965.21800049,280264.431600001,0.326530612244898,0.03983105600008
"245",3492,4096434.6,5991434.6,49941.6,286165.368,324620.4,244713.84,281139.836400001,0.326530612244898,0.03995328
"246",3492.5,4121443.59,6016443.59,50094.3700001,287040.740100573,325613.40500065,245462.41300049,282015.2358,0.326530612244898,0.04007549600008
"247",3493,4146528.97,6041528.97,50247.1500001,287916.169500573,326606.47500065,246211.03500049,282890.635200001,0.326530612244898,0.04019772000008
"248",3493.5,4171690.74,6066690.74,50399.9199999,288791.541599427,327599.47999935,246959.60799951,283766.034600001,0.326530612244898,0.04031993599992
"249",3494,4196928.9,6091928.9,50552.7000001,289666.971000573,328592.55000065,247708.23000049,284641.439400001,0.326530612244898,0.04044216000008
"250",3494.5,4222243.44,6117243.44,50705.4699999,290542.343099427,329585.55499935,248456.80299951,285516.838800001,0.326530612244898,0.04056437599992
"251",3495,4247634.37,6142634.37,50858.2500001,291417.772500573,330578.62500065,249205.42500049,286392.238200001,0.326530612244898,0.04068660000008
"252",3495.5,4273101.69,6168101.69,51011.02,292293.1446,331571.63,249953.998,287267.637600001,0.326530612244898,0.040808816
"253",3496,4298645.4,6193645.4,51163.7999999,293168.573999427,332564.69999935,250702.61999951,288143.042400001,0.326530612244898,0.04093103999992
"254",3496.5,4324265.49,6219265.49,51316.57,294043.9461,333557.705,251451.193,289018.441800001,0.326530612244898,0.041053256
"255",3497,4349961.97,6244961.97,51469.3499999,294919.375499427,334550.77499935,252199.81499951,289893.841200001,0.326530612244898,0.04117547999992
"256",3497.5,4375734.84,6270734.84,51622.12,295794.7476,335543.78,252948.388,290769.240600001,0.326530612244898,0.041297696
"257",3498,4401584.1,6296584.1,51774.9,296670.177,336536.85,253697.01,291644.645400001,0.326530612244898,0.04141992
"258",3498.5,4427509.74,6322509.74,51927.6700001,297545.549100573,337529.85500065,254445.58300049,292520.044800001,0.326530612244898,0.04154213600008
"259",3499,4453511.77,6348511.77,52080.45,298420.9785,338522.925,255194.205,293395.4442,0.326530612244898,0.04166436
"260",3499.5,4479590.19,6374590.19,52233.2200001,299296.350600573,339515.93000065,255942.77800049,294270.843600001,0.326530612244898,0.04178657600008
"261",3500,4505745,6400745,52386,300171.78,340509,256691.4,295146.248400001,0.326530612244898,0.0419088
"262",3500.5,4531982.31,6426982.31,52563.2500001,301187.422500573,341661.12500065,257559.92500049,296027.7678,0.326530612244898,0.04205060000008
"263",3501,4558308.25,6453308.25,52740.5000001,302203.065000573,342813.25000065,258428.45000049,296921.5272,0.326530612244898,0.04219240000008
"264",3501.5,4584722.81,6479722.81,52917.7499999,303218.707499427,343965.37499935,259296.97499951,297827.5166,0.326530612244898,0.04233419999992
"265",3502,4611226,6506226,53094.9999999,304234.349999427,345117.49999935,260165.49999951,298745.7514,0.326530612244898,0.04247599999992
"266",3502.5,4637817.81,6532817.81,53272.25,305249.9925,346269.625,261034.025,299676.2208,0.326530612244898,0.0426178
"267",3503,4664498.25,6559498.25,53449.5,306265.635,347421.75,261902.55,300618.930200001,0.326530612244898,0.0427596
"268",3503.5,4691267.31,6586267.31,53626.75,307281.2775,348573.875,262771.075,301573.869600001,0.326530612244898,0.0429014
"269",3504,4718125,6613125,53804,308296.92,349726,263639.6,302541.054400001,0.326530612244898,0.0430432
"270",3504.5,4745071.31,6640071.31,53981.2500001,309312.562500573,350878.12500065,264508.12500049,303520.473800001,0.326530612244898,0.04318500000008
"271",3505,4772106.25,6667106.25,54158.5000001,310328.205000573,352030.25000065,265376.65000049,304512.133200001,0.326530612244898,0.04332680000008
"272",3505.5,4799229.81,6694229.81,54335.7499999,311343.847499427,353182.37499935,266245.17499951,305516.022600001,0.326530612244898,0.04346859999992
"273",3506,4826442,6721442,54512.9999999,312359.489999427,354334.49999935,267113.69999951,306528.852600001,0.326530612244898,0.04361039999992
"274",3506.5,4853742.81,6748742.81,54690.25,313375.1325,355486.625,267982.225,307544.492400001,0.326530612244898,0.0437522
"275",3507,4881132.25,6776132.25,54867.5,314390.775,356638.75,268850.75,308560.137600001,0.326530612244898,0.043894
"276",3507.5,4908610.31,6803610.31,55044.75,315406.4175,357790.875,269719.275,309575.777400001,0.326530612244898,0.0440358
"277",3508,4936177,6831177,55222.0000001,316422.060000573,358943.00000065,270587.80000049,310591.422600001,0.326530612244898,0.04417760000008
"278",3508.5,4963832.31,6858832.31,55399.2500001,317437.702500573,360095.12500065,271456.32500049,311607.062400001,0.326530612244898,0.04431940000008
"279",3509,4991576.25,6886576.25,55576.5000001,318453.345000573,361247.25000065,272324.85000049,312622.707600001,0.326530612244898,0.04446120000008
"280",3509.5,5019408.81,6914408.81,55753.7499999,319468.987499427,362399.37499935,273193.37499951,313638.3474,0.326530612244898,0.04460299999992
"281",3510,5047330,6942330,55930.9999999,320484.629999427,363551.49999935,274061.89999951,314653.992600001,0.326530612244898,0.04474479999992
"282",3510.5,5075339.81,6970339.81,56108.25,321500.2725,364703.625,274930.425,315669.6324,0.326530612244898,0.0448866
"283",3511,5103438.25,6998438.25,56285.5,322515.915,365855.75,275798.95,316685.277600002,0.326530612244898,0.0450284
"284",3511.5,5131625.31,7026625.31,56462.75,323531.5575,367007.875,276667.475,317700.917400001,0.326530612244898,0.0451702
"285",3512,5159901,7054901,56640.0000001,324547.200000573,368160.00000065,277536.00000049,318716.562600001,0.326530612244898,0.04531200000008
"286",3512.5,5188265.31,7083265.31,56817.2500001,325562.842500573,369312.12500065,278404.52500049,319732.202400001,0.326530612244898,0.04545380000008
"287",3513,5216718.25,7111718.25,56994.4999999,326578.484999427,370464.24999935,279273.04999951,320747.847600001,0.326530612244898,0.04559559999992
"288",3513.5,5245259.81,7140259.81,57171.7499999,327594.127499427,371616.37499935,280141.57499951,321763.487400001,0.326530612244898,0.04573739999992
"289",3514,5273890,7168890,57348.9999999,328609.769999427,372768.49999935,281010.09999951,322779.132600001,0.326530612244898,0.04587919999992
"290",3514.5,5302608.81,7197608.81,57526.25,329625.4125,373920.625,281878.625,323794.772400001,0.326530612244898,0.046021
"291",3515,5331416.25,7226416.25,57703.5,330641.055,375072.75,282747.15,324810.417600001,0.326530612244898,0.0461628
"292",3515.5,5360312.31,7255312.31,57880.75,331656.6975,376224.875,283615.675,325826.057400001,0.326530612244898,0.0463046
"293",3516,5389297,7284297,58058.0000001,332672.340000573,377377.00000065,284484.20000049,326841.702600001,0.326530612244898,0.04644640000008
"294",3516.5,5418370.31,7313370.31,58235.2500001,333687.982500573,378529.12500065,285352.72500049,327857.3424,0.326530612244898,0.04658820000008
"295",3517,5447532.25,7342532.25,58412.4999999,334703.624999427,379681.24999935,286221.24999951,328872.987600002,0.326530612244898,0.04672999999992
"296",3517.5,5476782.81,7371782.81,58589.7499999,335719.267499427,380833.37499935,287089.77499951,329888.627400001,0.326530612244898,0.04687179999992
"297",3518,5506122,7401122,58767,336734.91,381985.5,287958.3,330904.272600002,0.326530612244898,0.0470136
"298",3518.5,5535549.81,7430549.81,58944.25,337750.5525,383137.625,288826.825,331919.912400001,0.326530612244898,0.0471554
"299",3519,5565066.25,7460066.25,59121.5,338766.195,384289.75,289695.35,332935.557600001,0.326530612244898,0.0472972
"300",3519.5,5594671.31,7489671.31,59298.7500001,339781.837500573,385441.87500065,290563.87500049,333951.197400001,0.326530612244898,0.04743900000008
"301",3520,5624365,7519365,59476.0000001,340797.480000573,386594.00000065,291432.40000049,334966.842600001,0.326530612244898,0.04758080000008
"302",3520.5,5654151.31,7549151.31,59669.2499999,341904.802499427,387850.12499935,292379.32499951,335986.482400001,0.326530612244898,0.04773539999992
"303",3521,5684034.25,7579034.25,59862.5,343012.125,389106.25,293326.25,337014.127600001,0.326530612244898,0.04789
"304",3521.5,5714013.81,7609013.81,60055.7500001,344119.447500573,390362.37500065,294273.17500049,338049.767400001,0.326530612244898,0.04804460000008
"305",3522,5744090,7639090,60249,345226.77,391618.5,295220.1,339093.412600001,0.326530612244898,0.0481992
"306",3522.5,5774262.81,7669262.81,60442.25,346334.0925,392874.625,296167.025,340145.0524,0.326530612244898,0.0483538
"307",3523,5804532.25,7699532.25,60635.4999999,347441.414999427,394130.74999935,297113.94999951,341204.697600001,0.326530612244898,0.04850839999992
"308",3523.5,5834898.31,7729898.31,60828.75,348548.7375,395386.875,298060.875,342272.337400001,0.326530612244898,0.048663
"309",3524,5865361,7760361,61022.0000001,349656.060000573,396643.00000065,299007.80000049,343347.982600002,0.326530612244898,0.04881760000008
"310",3524.5,5895920.31,7790920.31,61215.2499999,350763.382499427,397899.12499935,299954.72499951,344431.622400001,0.326530612244898,0.04897219999992
"311",3525,5926576.25,7821576.25,61408.5,351870.705,399155.25,300901.65,345523.267600001,0.326530612244898,0.0491268
"312",3525.5,5957328.81,7852328.81,61601.7500001,352978.027500573,400411.37500065,301848.57500049,346622.907400001,0.326530612244898,0.04928140000008
"313",3526,5988178,7883178,61794.9999999,354085.349999427,401667.49999935,302795.49999951,347728.392600002,0.326530612244898,0.04943599999992
"314",3526.5,6019123.81,7914123.81,61988.25,355192.6725,402923.625,303742.425,348835.712400001,0.326530612244898,0.0495906
"315",3527,6050166.25,7945166.25,62181.4999999,356299.994999427,404179.74999935,304689.34999951,349943.037600001,0.326530612244898,0.04974519999992
"316",3527.5,6081305.31,7976305.31,62374.75,357407.3175,405435.875,305636.275,351050.357400001,0.326530612244898,0.0498998
"317",3528,6112541,8007541,62568.0000001,358514.640000573,406692.00000065,306583.20000049,352157.682600001,0.326530612244898,0.05005440000008
"318",3528.5,6143873.31,8038873.31,62761.2499999,359621.962499427,407948.12499935,307530.12499951,353265.002400001,0.326530612244898,0.05020899999992
"319",3529,6175302.25,8070302.25,62954.5,360729.285,409204.25,308477.05,354372.327600001,0.326530612244898,0.0503636
"320",3529.5,6206827.81,8101827.81,63147.7500001,361836.607500573,410460.37500065,309423.97500049,355479.647400001,0.326530612244898,0.05051820000008
"321",3530,6238450,8133450,63340.9999999,362943.929999427,411716.49999935,310370.89999951,356586.972600001,0.326530612244898,0.05067279999992
"322",3530.5,6270168.81,8165168.81,63534.25,364051.2525,412972.625,311317.825,357694.292400001,0.326530612244898,0.0508274
"323",3531,6301984.25,8196984.25,63727.4999999,365158.574999427,414228.74999935,312264.74999951,358801.617600001,0.326530612244898,0.05098199999992
"324",3531.5,6333896.31,8228896.31,63920.75,366265.8975,415484.875,313211.675,359908.937400001,0.326530612244898,0.0511366
"325",3532,6365905,8260905,64114.0000001,367373.220000573,416741.00000065,314158.60000049,361016.262600001,0.326530612244898,0.05129120000008
"326",3532.5,6398010.31,8293010.31,64307.2499999,368480.542499427,417997.12499935,315105.52499951,362123.582400001,0.326530612244898,0.05144579999992
"327",3533,6430212.25,8325212.25,64500.5,369587.865,419253.25,316052.45,363230.907600001,0.326530612244898,0.0516004
"328",3533.5,6462510.81,8357510.81,64693.7500001,370695.187500573,420509.37500065,316999.37500049,364338.227400001,0.326530612244898,0.05175500000008
"329",3534,6494906,8389906,64886.9999999,371802.509999427,421765.49999935,317946.29999951,365445.552600001,0.326530612244898,0.05190959999992
"330",3534.5,6527397.81,8422397.81,65080.25,372909.8325,423021.625,318893.225,366552.872400001,0.326530612244898,0.0520642
"331",3535,6559986.25,8454986.25,65273.5000001,374017.155000573,424277.75000065,319840.15000049,367660.197600001,0.326530612244898,0.05221880000008
"332",3535.5,6592671.31,8487671.31,65466.75,375124.4775,425533.875,320787.075,368767.517400001,0.326530612244898,0.0523734
"333",3536,6625453,8520453,65660.0000001,376231.800000573,426790.00000065,321734.00000049,369874.842600001,0.326530612244898,0.05252800000008
"334",3536.5,6658331.31,8553331.31,65853.2499999,377339.122499427,428046.12499935,322680.92499951,370982.162400001,0.326530612244898,0.05268259999992
"335",3537,6691306.25,8586306.25,66046.5,378446.445,429302.25,323627.85,372089.487600002,0.326530612244898,0.0528372
"336",3537.5,6724377.81,8619377.81,66239.7500001,379553.767500573,430558.37500065,324574.77500049,373196.807400001,0.326530612244898,0.05299180000008
"337",3538,6757546,8652546,66432.9999999,380661.089999427,431814.49999935,325521.69999951,374304.132600001,0.326530612244898,0.05314639999992
"338",3538.5,6790810.81,8685810.81,66626.25,381768.4125,433070.625,326468.625,375411.452400001,0.326530612244898,0.053301
"339",3539,6824172.25,8719172.25,66819.5000001,382875.735000573,434326.75000065,327415.55000049,376518.777600002,0.326530612244898,0.05345560000008
"340",3539.5,6857630.31,8752630.31,67012.75,383983.0575,435582.875,328362.475,377626.097400001,0.326530612244898,0.0536102
"341",3540,6891185,8786185,67206,385090.38,436839,329309.4,378733.422600001,0.326530612244898,0.0537648
"342",3540.5,6924842.84,8819842.84,67425.37,386347.3701,438264.905,330384.313,379847.272400001,0.326530612244898,0.053940296
"343",3541,6958610.37,8853610.37,67644.75,387604.4175,439690.875,331459.275,380974.187600002,0.326530612244898,0.0541158
"344",3541.5,6992487.59,8887487.59,67864.1200001,388861.407600573,441116.78000065,332534.18800049,382114.167400002,0.326530612244898,0.05429129600008
"345",3542,7026474.5,8921474.5,68083.4999999,390118.454999427,442542.74999935,333609.14999951,383267.212600001,0.326530612244898,0.05446679999992
"346",3542.5,7060571.09,8955571.09,68302.87,391375.4451,443968.655,334684.063,384433.312400001,0.326530612244898,0.054642296
"347",3543,7094777.37,8989777.37,68522.25,392632.4925,445394.625,335759.025,385612.477600002,0.326530612244898,0.0548178
"348",3543.5,7129093.34,9024093.34,68741.62,393889.4826,446820.53,336833.938,386804.707400002,0.326530612244898,0.054993296
"349",3544,7163519,9058519,68961,395146.53,448246.5,337908.9,388010.002600001,0.326530612244898,0.0551688
"350",3544.5,7198054.34,9093054.34,69180.3700001,396403.520100573,449672.40500065,338983.81300049,389228.352400001,0.326530612244898,0.05534429600008
"351",3545,7232699.37,9127699.37,69399.7499999,397660.567499427,451098.37499935,340058.77499951,390459.767600002,0.326530612244898,0.05551979999992
"352",3545.5,7267454.09,9162454.09,69619.12,398917.5576,452524.28,341133.688,391704.247400002,0.326530612244898,0.055695296
"353",3546,7302318.5,9197318.5,69838.5000001,400174.605000573,453950.25000065,342208.65000049,392958.266400001,0.326530612244898,0.05587080000008
"354",3546.5,7337292.59,9232292.59,70057.87,401431.5951,455376.155,343283.563,394215.283800001,0.326530612244898,0.056046296
"355",3547,7372376.37,9267376.37,70277.25,402688.6425,456802.125,344358.525,395472.301200002,0.326530612244898,0.0562218
"356",3547.5,7407569.84,9302569.84,70496.6199999,403945.632599427,458228.02999935,345433.43799951,396729.318600001,0.326530612244898,0.05639729599992
"357",3548,7442873,9337873,70715.9999999,405202.679999427,459653.99999935,346508.39999951,397986.341400001,0.326530612244898,0.05657279999992
"358",3548.5,7478285.84,9373285.84,70935.37,406459.6701,461079.905,347583.313,399243.358800001,0.326530612244898,0.056748296
"359",3549,7513808.37,9408808.37,71154.7500001,407716.717500573,462505.87500065,348658.27500049,400500.376200002,0.326530612244898,0.05692380000008
"360",3549.5,7549440.59,9444440.59,71374.12,408973.7076,463931.78,349733.188,401757.393600001,0.326530612244898,0.057099296
"361",3550,7585182.5,9480182.5,71593.5,410230.755,465357.75,350808.15,403014.416400001,0.326530612244898,0.0572748
"362",3550.5,7621034.09,9516034.09,71812.8699999,411487.745099427,466783.65499935,351883.06299951,404271.433800001,0.326530612244898,0.05745029599992
"363",3551,7656995.37,9551995.37,72032.2499999,412744.792499427,468209.62499935,352958.02499951,405528.451200001,0.326530612244898,0.05762579999992
"364",3551.5,7693066.34,9588066.34,72251.62,414001.7826,469635.53,354032.938,406785.468600001,0.326530612244898,0.057801296
"365",3552,7729247,9624247,72471.0000001,415258.830000573,471061.50000065,355107.90000049,408042.491400002,0.326530612244898,0.05797680000008
"366",3552.5,7765537.34,9660537.34,72690.37,416515.8201,472487.405,356182.813,409299.508800001,0.326530612244898,0.058152296
"367",3553,7801937.37,9696937.37,72909.75,417772.8675,473913.375,357257.775,410556.526200001,0.326530612244898,0.0583278
"368",3553.5,7838447.09,9733447.09,73129.1199999,419029.857599427,475339.27999935,358332.68799951,411813.543600001,0.326530612244898,0.05850329599992
"369",3554,7875066.5,9770066.5,73348.4999999,420286.904999427,476765.24999935,359407.64999951,413070.566400002,0.326530612244898,0.05867879999992
"370",3554.5,7911795.59,9806795.59,73567.8700001,421543.895100573,478191.15500065,360482.56300049,414327.583800001,0.326530612244898,0.05885429600008
"371",3555,7948634.37,9843634.37,73787.2500001,422800.942500573,479617.12500065,361557.52500049,415584.601200001,0.326530612244898,0.05902980000008
"372",3555.5,7985582.84,9880582.84,74006.62,424057.9326,481043.03,362632.438,416841.618600002,0.326530612244898,0.059205296
"373",3556,8022641,9917641,74226,425314.98,482469,363707.4,418098.641400001,0.326530612244898,0.0593808
"374",3556.5,8059808.84,9954808.84,74445.3699999,426571.970099427,483894.90499935,364782.31299951,419355.658800001,0.326530612244898,0.05955629599992
"375",3557,8097086.37,9992086.37,74664.7499999,427829.017499427,485320.87499935,365857.27499951,420612.676200002,0.326530612244898,0.05973179999992
"376",3557.5,8134473.59002,10029473.59002,74884.1200001,429086.007600573,486746.78000065,366932.18800049,421869.693620001,0.326530612244898,0.05990729600008
"377",3558,8171970.49998,10066970.49998,75103.5000001,430343.055000573,488172.75000065,368007.15000049,423126.716380001,0.326530612244898,0.06008280000008
"378",3558.5,8209577.09003,10104577.09003,75322.87,431600.0451,489598.655,369082.063,424383.733830001,0.326530612244898,0.060258296
"379",3559,8247293.36998,10142293.36998,75542.25,432857.0925,491024.625,370157.025,425640.751180002,0.326530612244898,0.0604338
"380",3559.5,8285119.34,10180119.34,75761.6199999,434114.082599427,492450.52999935,371231.93799951,426897.768600001,0.326530612244898,0.06060929599992
"381",3560,8323054.99999,10218054.99999,75980.9999999,435371.129999427,493876.49999935,372306.89999951,428154.791390002,0.326530612244898,0.06078479999992
"382",3560.5,8361106.03996,10256106.03996,76223.15,436758.6495,495450.475,373493.435,429417.508760002,0.326530612244898,0.06097852
"383",3561,8399278.14997,10294278.14997,76465.3000001,438146.169000573,497024.45000065,374679.97000049,430691.606170002,0.326530612244898,0.06117224000008
"384",3561.5,8437571.34,10332571.34,76707.4499999,439533.688499427,498598.42499935,375866.50499951,431977.093600001,0.326530612244898,0.06136595999992
"385",3562,8475985.59999,10370985.59999,76949.6,440921.208,500172.4,377053.04,433273.966390001,0.326530612244898,0.06155968
"386",3562.5,8514520.93999,10409520.93999,77191.7500001,442308.727500573,501746.37500065,378239.57500049,434582.233790002,0.326530612244898,0.06175340000008
"387",3563,8553177.34996,10448177.34996,77433.8999999,443696.246999427,503320.34999935,379426.10999951,435901.881149201,0.326530612244898,0.06194711999992
"388",3563.5,8591954.84003,10486954.84003,77676.05,445083.7665,504894.325,380612.645,437232.918631601,0.326530612244898,0.06214084
"389",3564,8630853.39997,10525853.39997,77918.2,446471.286,506468.3,381799.18,438575.341363003,0.326530612244898,0.06233456
"390",3564.5,8669873.04001,10564873.04001,78160.3500001,447858.805500573,508042.27500065,382985.71500049,439929.158807001,0.326530612244898,0.06252828000008
"391",3565,8709013.75002,10604013.75002,78402.4999999,449246.324999427,509616.24999935,384172.24999951,441294.356229201,0.326530612244898,0.06272199999992
"392",3565.5,8748275.54004,10643275.54004,78644.65,450633.8445,511190.225,385358.785,442670.943645401,0.326530612244898,0.06291572
"393",3566,8787658.40002,10682658.40002,78886.8000001,452021.364000573,512764.20000065,386545.32000049,444055.838446201,0.326530612244898,0.06310944000008
"394",3566.5,8827162.34002,10722162.34002,79128.9499999,453408.883499427,514338.17499935,387731.85499951,445443.3606546,0.326530612244898,0.06330315999992
"395",3567,8866787.34998,10761787.34998,79371.1,454796.403,515912.15,388918.39,446830.877393801,0.326530612244898,0.06349688
"396",3567.5,8906533.43996,10801533.43996,79613.2500001,456183.922500573,517486.12500065,390104.92500049,448218.399565401,0.326530612244898,0.06369060000008
"397",3568,8946400.59998,10841400.59998,79855.3999999,457571.441999427,519060.09999935,391291.45999951,449605.916390002,0.326530612244898,0.06388431999992
"398",3568.5,8986388.84002,10881388.84002,80097.55,458958.9615,520634.075,392477.995,450993.438646201,0.326530612244898,0.06407804
"399",3569,9026498.15002,10921498.15002,80339.7000001,460346.481000573,522208.05000065,393664.53000049,452380.955422202,0.326530612244898,0.06427176000008
"400",3569.5,9066728.54003,10961728.54003,80581.8499999,461734.000499427,523782.02499935,394851.06499951,453768.477632402,0.326530612244898,0.06446547999992
"401",3570,9107080.00001,11002080.00001,80824,463121.52,525356,396037.6,455155.994418401,0.326530612244898,0.0646592
"402",3570.5,9147552.54,11042552.54,81066.1500001,464509.039500573,526929.97500065,397224.13500049,456543.516584601,0.326530612244898,0.06485292000008
"403",3571,9188146.15003,11083146.15003,81308.2999999,465896.558999427,528503.94999935,398410.66999951,457931.033399202,0.326530612244898,0.06504663999992
"404",3571.5,9228860.84001,11123860.84001,81550.45,467284.0785,530077.925,399597.205,459318.555580802,0.326530612244898,0.06524036
"405",3572,9269696.60002,11164696.60002,81792.6000001,468671.598000573,531651.90000065,400783.74000049,460706.072400004,0.326530612244898,0.06543408000008
"406",3572.5,9310653.43997,11205653.43997,82034.7499999,470059.117499427,533225.87499935,401970.27499951,462093.594571602,0.326530612244898,0.06562779999992
"407",3573,9351731.34996,11246731.34996,82276.9,471446.637,534799.85,403156.81,463481.111390801,0.326530612244898,0.06582152
"408",3573.5,9392930.33997,11287930.33997,82519.05,472834.1565,536373.825,404343.345,464868.633599201,0.326530612244898,0.06601524
"409",3574,9434250.40002,11329250.40002,82761.2000001,474221.676000573,537947.80000065,405529.88000049,466256.150418401,0.326530612244898,0.06620896000008
"410",3574.5,9475691.54001,11370691.54001,83003.3499999,475609.195499427,539521.77499935,406716.41499951,467643.672590002,0.326530612244898,0.06640267999992
"411",3575,9517253.75004,11412253.75004,83245.5,476996.715,541095.75,407902.95,469031.189414602,0.326530612244898,0.0665964
"412",3575.5,9558937.04,11453937.04,83487.6500001,478384.234500573,542669.72500065,409089.48500049,470418.7115808,0.326530612244898,0.06679012000008
"413",3576,9600741.40001,11495741.40001,83729.7999999,479771.753999427,544243.69999935,410276.01999951,471806.228405403,0.326530612244898,0.06698383999992
"414",3576.5,9642666.84003,11537666.84003,83971.95,481159.2735,545817.675,411462.555,473193.750613801,0.326530612244898,0.06717756
"415",3577,9684713.35002,11579713.35002,84214.1000001,482546.793000573,547391.65000065,412649.09000049,474581.267400801,0.326530612244898,0.06737128000008
"416",3577.5,9726880.94002,11621880.94002,84456.2499999,483934.312499427,548965.62499935,413835.62499951,475968.789604602,0.326530612244898,0.06756499999992
"417",3578,9769169.59998,11664169.59998,84698.4,485321.832,550539.6,415022.16,477356.306387002,0.326530612244898,0.06775872
"418",3578.5,9811579.33996,11706579.33996,84940.5500001,486709.351500573,552113.57500065,416208.69500049,478743.828595402,0.326530612244898,0.06795244000008
"419",3579,9854110.14999,11749110.14999,85182.6999999,488096.870999427,553687.54999935,417395.22999951,480131.345424602,0.326530612244898,0.06814615999992
"420",3579.5,9896762.04002,11791762.04002,85424.85,489484.3905,555261.525,418581.765,481518.867623001,0.326530612244898,0.06833988
"421",3580,9939535.00003,11834535.00003,85667.0000001,490871.910000573,556835.50000065,419768.30000049,482906.384415401,0.326530612244898,0.06853360000008
"422",3580.5,9982429.25002,11877429.25002,85909.9999999,492264.299999427,558414.99999935,420958.99999951,484294.1165938,0.326530612244898,0.06872799999992
"423",3581,10025445,11920445,86153,493656.69,559994.5,422149.7,485682.273381602,0.326530612244898,0.0689224
"424",3581.5,10068582.25,11963582.25,86396.0000001,495049.080000573,561574.00000065,423340.40000049,487070.855594601,0.326530612244898,0.06911680000008
"425",3582,10111841,12006841,86638.9999999,496441.469999427,563153.49999935,424531.09999951,488459.862379201,0.326530612244898,0.0693111999999199
"426",3582.5,10155221.25,12050221.25,86882,497833.86,564733,425721.8,489849.294575401,0.326530612244898,0.0695056
"427",3583,10198723,12093723,87125.0000001,499226.250000573,566312.50000065,426912.50000049,491239.151380001,0.326530612244898,0.06970000000008
"428",3583.5,10242346.25,12137346.25,87367.9999999,500618.639999427,567891.99999935,428103.19999951,492629.433601601,0.326530612244898,0.06989439999992
"429",3584,10286091,12181091,87611,502011.03,569471.5,429293.9,494020.140430802,0.326530612244898,0.0700888
"430",3584.5,10329957.25,12224957.25,87854.0000001,503403.420000573,571051.00000065,430484.60000049,495411.272623802,0.326530612244898,0.07028320000008
"431",3585,10373945,12268945,88097,504795.81,572630.5,431675.3,496802.829393802,0.326530612244898,0.0704776
"432",3585.5,10418054.25,12313054.25,88340,506188.2,574210,432866,498194.811574602,0.326530612244898,0.070672
"433",3586,10462285,12357285,88582.9999999,507580.589999427,575789.49999935,434056.69999951,499587.104975402,0.326530612244898,0.07086639999992
"434",3586.5,10506637.25,12401637.25,88826,508972.98,577369,435247.4,500979.494990801,0.326530612244898,0.0710608
"435",3587,10551111,12446111,89069.0000001,510365.370000573,578948.50000065,436438.10000049,502371.885000002,0.326530612244898,0.07125520000008
"436",3587.5,10595706.25,12490706.25,89311.9999999,511757.759999427,580527.99999935,437628.79999951,503764.275000002,0.326530612244898,0.0714495999999199
"437",3588,10640423,12535423,89555,513150.15,582107.5,438819.5,505156.665000001,0.326530612244898,0.071644
"438",3588.5,10685261.25,12580261.25,89798.0000001,514542.540000573,583687.00000065,440010.20000049,506549.055000002,0.326530612244898,0.07183840000008
"439",3589,10730221,12625221,90040.9999999,515934.929999427,585266.49999935,441200.89999951,507941.445000002,0.326530612244898,0.0720327999999199
"440",3589.5,10775302.25,12670302.25,90284,517327.32,586846,442391.6,509333.835000001,0.326530612244898,0.0722272
"441",3590,10820505,12715505,90527.0000001,518719.710000573,588425.50000065,443582.30000049,510726.225000001,0.326530612244898,0.07242160000008
"442",3590.5,10865829.25,12760829.25,90769.9999999,520112.099999427,590004.99999935,444772.99999951,512118.615000002,0.326530612244898,0.07261599999992
"443",3591,10911275,12806275,91013,521504.49,591584.5,445963.7,513511.005000001,0.326530612244898,0.0728104
"444",3591.5,10956842.25,12851842.25,91256.0000001,522896.880000573,593164.00000065,447154.40000049,514903.395000001,0.326530612244898,0.07300480000008
"445",3592,11002531,12897531,91499,524289.27,594743.5,448345.1,516295.785000002,0.326530612244898,0.0731992
"446",3592.5,11048341.25,12943341.25,91742,525681.66,596323,449535.8,517688.175000001,0.326530612244898,0.0733936
"447",3593,11094273,12989273,91984.9999999,527074.049999427,597902.49999935,450726.49999951,519080.565000001,0.326530612244898,0.07358799999992
"448",3593.5,11140326.25,13035326.25,92228,528466.44,599482,451917.2,520472.955000002,0.326530612244898,0.0737824
"449",3594,11186501,13081501,92471.0000001,529858.830000573,601061.50000065,453107.90000049,521865.345000003,0.326530612244898,0.07397680000008
"450",3594.5,11232797.25,13127797.25,92713.9999999,531251.219999427,602640.99999935,454298.59999951,523257.735000001,0.326530612244898,0.0741711999999199
"451",3595,11279215,13174215,92957,532643.61,604220.5,455489.3,524650.125000002,0.326530612244898,0.0743656
"452",3595.5,11325754.25,13220754.25,93200.0000001,534036.000000573,605800.00000065,456680.00000049,526042.515000002,0.326530612244898,0.07456000000008
"453",3596,11372415,13267415,93442.9999999,535428.389999427,607379.49999935,457870.69999951,527434.905000001,0.326530612244898,0.07475439999992
"454",3596.5,11419197.25,13314197.25,93686,536820.78,608959,459061.4,528827.295000002,0.326530612244898,0.0749488
"455",3597,11466101,13361101,93929.0000001,538213.170000573,610538.50000065,460252.10000049,530219.685000002,0.326530612244898,0.07514320000008
"456",3597.5,11513126.25,13408126.25,94171.9999999,539605.559999427,612117.99999935,461442.79999951,531612.075000001,0.326530612244898,0.0753375999999199
"457",3598,11560273,13455273,94415,540997.95,613697.5,462633.5,533004.465000002,0.326530612244898,0.075532
"458",3598.5,11607541.25,13502541.25,94658.0000001,542390.340000573,615277.00000065,463824.20000049,534396.855000002,0.326530612244898,0.07572640000008
"459",3599,11654931,13549931,94901,543782.73,616856.5,465014.9,535789.245000001,0.326530612244898,0.0759208
"460",3599.5,11702442.25,13597442.25,95144,545175.12,618436,466205.6,537181.635000002,0.326530612244898,0.0761152
"461",3600,11750075,13645075,95386.9999999,546567.509999427,620015.49999935,467396.29999951,538574.025000002,0.326530612244898,0.0763095999999199
"462",3600.5,11797834.39,13692834.39,95650.5500001,548077.651500573,621728.57500065,468687.69500049,539971.555000002,0.326530612244898,0.07652044000008
"463",3601,11845725.55,13740725.55,95914.1000001,549587.793000573,623441.65000065,469979.09000049,541379.355000002,0.326530612244898,0.07673128000008
"464",3601.5,11893748.49,13788748.49,96177.65,551097.9345,625154.725,471270.485,542797.435000002,0.326530612244898,0.07694212
"465",3602,11941903.2,13836903.2,96441.2,552608.076,626867.8,472561.88,544225.785,0.326530612244898,0.07715296
"466",3602.5,11990189.69,13885189.69,96704.75,554118.2175,628580.875,473853.275,545664.415000001,0.326530612244898,0.0773638
"467",3603,12038607.95,13933607.95,96968.2999999,555628.358999427,630293.94999935,475144.66999951,547113.315000001,0.326530612244898,0.07757463999992
"468",3603.5,12087157.99,13982157.99,97231.8499999,557138.500499427,632007.02499935,476436.06499951,548572.495000001,0.326530612244898,0.07778547999992
"469",3604,12135839.8,14030839.8,97495.3999999,558648.641999427,633720.09999935,477727.45999951,550041.945000002,0.326530612244898,0.0779963199999199
"470",3604.5,12184653.39,14079653.39,97758.9500001,560158.783500573,635433.17500065,479018.85500049,551521.675000003,0.326530612244898,0.07820716000008
"471",3605,12233598.75,14128598.75,98022.5000001,561668.925000573,637146.25000065,480310.25000049,553011.675000003,0.326530612244898,0.07841800000008
"472",3605.5,12282675.89,14177675.89,98286.05,563179.0665,638859.325,481601.645,554511.955000002,0.326530612244898,0.07862884
"473",3606,12331884.8,14226884.8,98549.6,564689.208,640572.4,482893.04,556019.729400001,0.326530612244898,0.07883968
"474",3606.5,12381225.49,14276225.49,98813.15,566199.3495,642285.475,484184.435,557529.873600001,0.326530612244898,0.07905052
"475",3607,12430697.95,14325697.95,99076.7,567709.491,643998.55,485475.83,559040.012400001,0.326530612244898,0.07926136
"476",3607.5,12480302.19,14375302.19,99340.2499999,569219.632499427,645711.62499935,486767.22499951,560550.156600002,0.326530612244898,0.0794721999999199
"477",3608,12530038.2,14425038.2,99603.7999999,570729.773999427,647424.69999935,488058.61999951,562060.295400001,0.326530612244898,0.07968303999992
"478",3608.5,12579905.99,14474905.99,99867.3500001,572239.915500573,649137.77500065,489350.01500049,563570.439600002,0.326530612244898,0.07989388000008
"479",3609,12629905.55,14524905.55,100130.9,573750.057,650850.85,490641.41,565080.578400003,0.326530612244898,0.08010472
"480",3609.5,12680036.89,14575036.89,100394.45,575260.1985,652563.925,491932.805,566590.722600002,0.326530612244898,0.08031556
"481",3610,12730300,14625300,100658,576770.34,654277,493224.2,568100.861400001,0.326530612244898,0.0805264
"482",3610.5,12780694.89,14675694.89,100921.55,578280.4815,655990.075,494515.595,569611.005600002,0.326530612244898,0.08073724
"483",3611,12831221.55,14726221.55,101185.1,579790.623,657703.15,495806.99,571121.144400002,0.326530612244898,0.08094808
"484",3611.5,12881879.99,14776879.99,101448.65,581300.7645,659416.225,497098.385,572631.288600001,0.326530612244898,0.08115892
"485",3612,12932670.2,14827670.2,101712.2,582810.906,661129.3,498389.78,574141.4274,0.326530612244898,0.08136976
"486",3612.5,12983592.19,14878592.19,101975.75,584321.0475,662842.375,499681.175,575651.571600001,0.326530612244898,0.0815806
"487",3613,13034645.95,14929645.95,102239.3,585831.189,664555.45,500972.57,577161.710400002,0.326530612244898,0.08179144
"488",3613.5,13085831.49,14980831.49,102502.85,587341.3305,666268.525,502263.965,578671.854600003,0.326530612244898,0.08200228
"489",3614,13137148.8,15032148.8,102766.4,588851.472,667981.6,503555.36,580181.993400002,0.326530612244898,0.08221312
"490",3614.5,13188597.89,15083597.89,103029.95,590361.6135,669694.675,504846.755,581692.137600003,0.326530612244898,0.08242396
"491",3615,13240178.75,15135178.75,103293.5,591871.755,671407.75,506138.15,583202.276400002,0.326530612244898,0.0826348
"492",3615.5,13291891.39,15186891.39,103557.05,593381.8965,673120.825,507429.545,584712.420600003,0.326530612244898,0.08284564
"493",3616,13343735.8,15238735.8,103820.6,594892.038,674833.9,508720.94,586222.559400002,0.326530612244898,0.08305648
"494",3616.5,13395711.99,15290711.99,104084.15,596402.1795,676546.975,510012.335,587732.703600001,0.326530612244898,0.08326732
"495",3617,13447819.95,15342819.95,104347.7,597912.321,678260.05,511303.73,589242.842400001,0.326530612244898,0.0834781599999999
"496",3617.5,13500059.69,15395059.69,104611.25,599422.4625,679973.125,512595.125,590752.986600002,0.326530612244898,0.083689
"497",3618,13552431.2,15447431.2,104874.8,600932.604,681686.2,513886.52,592263.125400001,0.326530612244898,0.08389984
"498",3618.5,13604934.49,15499934.49,105138.35,602442.7455,683399.275,515177.915,593773.269600002,0.326530612244898,0.08411068
"499",3619,13657569.55,15552569.55,105401.9,603952.887,685112.35,516469.31,595283.408400003,0.326530612244898,0.08432152
"500",3619.5,13710336.39,15605336.39,105665.45,605463.0285,686825.425,517760.705,596793.552600002,0.326530612244898,0.08453236
"501",3620,13763235,15658235,105929,606973.17,688538.5,519052.1,598303.691400001,0.326530612244898,0.0847432
"502",3620.5,13816275.28,15711275.28,106232.12,608710.0476,690508.78,520537.388,599823.7256,0.326530612244898,0.084985696
"503",3621,13869467.12,15764467.12,106535.25,610446.9825,692479.125,522022.725,601363.544400001,0.326530612244898,0.0852282
"504",3621.5,13922810.53,15817810.53,106838.37,612183.8601,694449.405,523508.013,602923.158600001,0.326530612244898,0.085470696
"505",3622,13976305.5,15871305.5,107141.5,613920.795,696419.75,524993.35,604502.557400001,0.326530612244898,0.0857131999999999
"506",3622.5,14029952.03,15924952.03,107444.62,615657.6726,698390.03,526478.638,606101.741600001,0.326530612244898,0.085955696
"507",3623,14083750.12,15978750.12,107747.75,617394.6075,700360.375,527963.975,607720.710400002,0.326530612244898,0.0861981999999999
"508",3623.5,14137699.78,16032699.78,108050.87,619131.4851,702330.655,529449.263,609359.474600002,0.326530612244898,0.086440696
"509",3624,14191801,16086801,108354,620868.42,704301,530934.6,611018.023400001,0.326530612244898,0.0866832
"510",3624.5,14246053.78,16141053.78,108657.12,622605.2976,706271.28,532419.888,612696.357600002,0.326530612244898,0.086925696
"511",3625,14300458.12,16195458.12,108960.25,624342.2325,708241.625,533905.225,614394.476400001,0.326530612244898,0.0871682
"512",3625.5,14355014.03,16250014.03,109263.37,626079.1101,710211.905,535390.513,616112.390600001,0.326530612244898,0.087410696
"513",3626,14409721.5,16304721.5,109566.5,627816.045,712182.25,536875.85,617844.748800002,0.326530612244898,0.0876532
"514",3626.5,14464580.53,16359580.53,109869.62,629552.9226,714152.53,538361.138,619581.656400003,0.326530612244898,0.087895696
"515",3627,14519591.12,16414591.12,110172.75,631289.8575,716122.875,539846.475,621318.558600001,0.326530612244898,0.0881382
"516",3627.5,14574753.28,16469753.28,110475.87,633026.7351,718093.155,541331.763,623055.466200002,0.326530612244898,0.088380696
"517",3628,14630067,16525067,110779,634763.67,720063.5,542817.1,624792.373800002,0.326530612244898,0.0886232
"518",3628.5,14685532.28,16580532.28,111082.12,636500.5476,722033.78,544302.388,626529.281400003,0.326530612244898,0.088865696
"519",3629,14741149.12,16636149.12,111385.25,638237.4825,724004.125,545787.725,628266.183600001,0.326530612244898,0.0891082
"520",3629.5,14796917.53,16691917.53,111688.37,639974.3601,725974.405,547273.013,630003.091200002,0.326530612244898,0.089350696
"521",3630,14852837.5,16747837.5,111991.5,641711.295,727944.75,548758.35,631739.998800002,0.326530612244898,0.0895932
"522",3630.5,14908909.03,16803909.03,112294.62,643448.1726,729915.03,550243.638,633476.906400003,0.326530612244898,0.089835696
"523",3631,14965132.12,16860132.12,112597.75,645185.1075,731885.375,551728.975,635213.808600001,0.326530612244898,0.0900782
"524",3631.5,15021506.78,16916506.78,112900.87,646921.9851,733855.655,553214.263,636950.716200002,0.326530612244898,0.090320696
"525",3632,15078033,16973033,113204,648658.92,735826,554699.6,638687.623800002,0.326530612244898,0.0905632
"526",3632.5,15134710.78,17029710.78,113507.12,650395.7976,737796.28,556184.888,640424.531400003,0.326530612244898,0.090805696
"527",3633,15191540.12,17086540.12,113810.25,652132.7325,739766.625,557670.225,642161.433600001,0.326530612244898,0.0910482
"528",3633.5,15248521.03,17143521.03,114113.37,653869.6101,741736.905,559155.513,643898.341200002,0.326530612244898,0.091290696
"529",3634,15305653.5,17200653.5,114416.5,655606.545,743707.25,560640.85,645635.248800002,0.326530612244898,0.0915332
"530",3634.5,15362937.53,17257937.53,114719.62,657343.4226,745677.53,562126.138,647372.156400003,0.326530612244898,0.091775696
"531",3635,15420373.12,17315373.12,115022.75,659080.3575,747647.875,563611.475,649109.058600001,0.326530612244898,0.0920182
"532",3635.5,15477960.28,17372960.28,115325.87,660817.2351,749618.155,565096.763,650845.966200002,0.326530612244898,0.092260696
"533",3636,15535699,17430699,115629,662554.17,751588.5,566582.1,652582.873800002,0.326530612244898,0.0925032
"534",3636.5,15593589.28,17488589.28,115932.12,664291.0476,753558.78,568067.388,654319.781400003,0.326530612244898,0.092745696
"535",3637,15651631.12,17546631.12,116235.25,666027.9825,755529.125,569552.725,656056.683600003,0.326530612244898,0.0929882
"536",3637.5,15709824.53,17604824.53,116538.37,667764.8601,757499.405,571038.013,657793.591200002,0.326530612244898,0.093230696
"537",3638,15768169.5,17663169.5,116841.5,669501.795,759469.75,572523.35,659530.498800002,0.326530612244898,0.0934732
"538",3638.5,15826666.03,17721666.03,117144.62,671238.6726,761440.03,574008.638,661267.406400003,0.326530612244898,0.093715696
"539",3639,15885314.12,17780314.12,117447.75,672975.6075,763410.375,575493.975,663004.308600003,0.326530612244898,0.0939582
"540",3639.5,15944113.78,17839113.78,117750.87,674712.4851,765380.655,576979.263,664741.216200002,0.326530612244898,0.094200696
"541",3640,16003065,17898065,118054,676449.42,767351,578464.6,666478.123800002,0.326530612244898,0.0944431999999999
"542",3640.5,16062172.28,17957172.28,118375.12,678289.4376,769438.28,580038.088,668219.531400003,0.326530612244898,0.094700096
"543",3641,16121440.12,18016440.12,118696.25,680129.5125,771525.625,581611.625,669969.933600003,0.326530612244898,0.094957
"544",3641.5,16180868.53,18075868.53,119017.37,681969.5301,773612.905,583185.113,671729.341200002,0.326530612244898,0.095213896
"545",3642,16240457.5,18135457.5,119338.5,683809.605,775700.25,584758.65,673497.748800002,0.326530612244898,0.0954708
"546",3642.5,16300207.03,18195207.03,119659.62,685649.6226,777787.53,586332.138,675275.156400003,0.326530612244898,0.095727696
"547",3643,16360117.12,18255117.12,119980.75,687489.6975,779874.875,587905.675,677061.558600003,0.326530612244898,0.0959846
"548",3643.5,16420187.78,18315187.78,120301.87,689329.7151,781962.155,589479.163,678856.966200002,0.326530612244898,0.096241496
"549",3644,16480419,18375419,120623,691169.79,784049.5,591052.7,680661.373800002,0.326530612244898,0.0964984
"550",3644.5,16540810.78,18435810.78,120944.12,693009.8076,786136.78,592626.188,682474.781400003,0.326530612244898,0.096755296
"551",3645,16601363.12,18496363.12,121265.25,694849.8825,788224.125,594199.725,684297.183600003,0.326530612244898,0.0970122
"552",3645.5,16662076.03,18557076.03,121586.37,696689.9001,790311.405,595773.213,686128.591200002,0.326530612244898,0.097269096
"553",3646,16722949.5,18617949.5,121907.5,698529.975,792398.75,597346.75,687966.568800002,0.326530612244898,0.097526
"554",3646.5,16783983.53,18678983.53,122228.62,700369.9926,794486.03,598920.238,689806.616400003,0.326530612244898,0.097782896
"555",3647,16845178.12,18740178.12,122549.75,702210.0675,796573.375,600493.775,691646.658600004,0.326530612244898,0.0980398
"556",3647.5,16906533.28,18801533.28,122870.87,704050.0851,798660.655,602067.263,693486.706200004,0.326530612244898,0.098296696
"557",3648,16968049,18863049,123192,705890.16,800748,603640.8,695326.753800003,0.326530612244898,0.0985536
"558",3648.5,17029725.28,18924725.28,123513.12,707730.1776,802835.28,605214.288,697166.801400004,0.326530612244898,0.098810496
"559",3649,17091562.12,18986562.12,123834.25,709570.2525,804922.625,606787.825,699006.843600003,0.326530612244898,0.0990674
"560",3649.5,17153559.53,19048559.53,124155.37,711410.2701,807009.905,608361.313,700846.891200004,0.326530612244898,0.099324296
"561",3650,17215717.5,19110717.5,124476.5,713250.345,809097.25,609934.85,702686.938800003,0.326530612244898,0.0995812
"562",3650.5,17278036.03,19173036.03,124797.62,715090.3626,811184.53,611508.338,704526.986400004,0.326530612244898,0.099838096
"563",3651,17340515.12,19235515.12,125118.75,716930.4375,813271.875,613081.875,706367.028600004,0.326530612244898,0.100095
"564",3651.5,17403154.78,19298154.78,125439.87,718770.4551,815359.155,614655.363,708207.076200003,0.326530612244898,0.100351896
"565",3652,17465955,19360955,125761,720610.53,817446.5,616228.9,710047.123800002,0.326530612244898,0.1006088
"566",3652.5,17528915.78,19423915.78,126082.12,722450.5476,819533.78,617802.388,711887.171400003,0.326530612244898,0.100865696
"567",3653,17592037.12,19487037.12,126403.25,724290.6225,821621.125,619375.925,713727.213600002,0.326530612244898,0.1011226
"568",3653.5,17655319.03,19550319.03,126724.37,726130.6401,823708.405,620949.413,715567.261200003,0.326530612244898,0.101379496
"569",3654,17718761.5,19613761.5,127045.5,727970.715,825795.75,622522.95,717407.308800001,0.326530612244898,0.1016364
"570",3654.5,17782364.53,19677364.53,127366.62,729810.7326,827883.03,624096.438,719247.356400002,0.326530612244898,0.101893296
"571",3655,17846128.12,19741128.12,127687.75,731650.8075,829970.375,625669.975,721087.398600001,0.326530612244898,0.1021502
"572",3655.5,17910052.28,19805052.28,128008.87,733490.8251,832057.655,627243.463,722927.446200002,0.326530612244898,0.102407096
"573",3656,17974137,19869137,128330,735330.9,834145,628817,724767.493800003,0.326530612244898,0.102664
"574",3656.5,18038382.28,19933382.28,128651.12,737170.9176,836232.28,630390.488,726607.541400004,0.326530612244898,0.102920896
"575",3657,18102788.12,19997788.12,128972.25,739010.9925,838319.625,631964.025,728447.583600003,0.326530612244898,0.1031778
"576",3657.5,18167354.53,20062354.53,129293.37,740851.0101,840406.905,633537.513,730287.631200004,0.326530612244898,0.103434696
"577",3658,18232081.5,20127081.5,129614.5,742691.085,842494.25,635111.05,732127.678800002,0.326530612244898,0.1036916
"578",3658.5,18296969.03,20191969.03,129935.62,744531.1026,844581.53,636684.538,733967.726400003,0.326530612244898,0.103948496
"579",3659,18362017.12,20257017.12,130256.75,746371.1775,846668.875,638258.075,735807.768600002,0.326530612244898,0.1042054
"580",3659.5,18427225.78,20322225.78,130577.87,748211.1951,848756.155,639831.563,737647.816200003,0.326530612244898,0.104462296
"581",3660,18492595,20387595,130899,750051.27,850843.5,641405.1,739487.8638,0.326530612244898,0.1047192
"582",3660.5,18558136.67,20453136.67,131267.7,752163.921,853240.05,643211.73,741339.801400002,0.326530612244898,0.10501416
"583",3661,18623862.7,20518862.7,131636.4,754276.572,855636.6,645018.36,743215.533599999,0.326530612244898,0.10530912
"584",3661.5,18689773.07,20584773.07,132005.1,756389.223,858033.15,646824.99,745115.041200001,0.326530612244898,0.10560408
"585",3662,18755867.8,20650867.8,132373.8,758501.874,860429.7,648631.62,747038.348800004,0.326530612244898,0.10589904
"586",3662.5,18822146.87,20717146.87,132742.5,760614.525,862826.25,650438.25,748985.436400004,0.326530612244898,0.106194
"587",3663,18888610.3,20783610.3,133111.2,762727.176,865222.8,652244.88,750956.318600003,0.326530612244898,0.10648896
"588",3663.5,18955258.07,20850258.07,133479.9,764839.827,867619.35,654051.51,752950.976200003,0.326530612244898,0.10678392
"589",3664,19022090.2,20917090.2,133848.6,766952.478,870015.9,655858.14,754969.433800001,0.326530612244898,0.10707888
"590",3664.5,19089106.67,20984106.67,134217.3,769065.129,872412.45,657664.77,757011.671400003,0.326530612244898,0.10737384
"591",3665,19156307.5,21051307.5,134586,771177.78,874809,659471.4,759077.703600001,0.326530612244898,0.1076688
"592",3665.5,19223692.67,21118692.67,134954.7,773290.431,877205.55,661278.03,761167.511200003,0.326530612244898,0.10796376
"593",3666,19291262.2,21186262.2,135323.4,775403.082,879602.1,663084.66,763274.698200002,0.326530612244898,0.10825872
"594",3666.5,19359016.07,21254016.07,135692.1,777515.733,881998.65,664891.29,765387.343800001,0.326530612244898,0.10855368
"595",3667,19426954.3,21321954.3,136060.8,779628.384,884395.2,666697.92,767500.000200003,0.326530612244898,0.10884864
"596",3667.5,19495076.87,21390076.87,136429.5,781741.035,886791.75,668504.55,769612.645800002,0.326530612244898,0.1091436
"597",3668,19563383.8,21458383.8,136798.2,783853.686,889188.3,670311.18,771725.302200001,0.326530612244898,0.10943856
"598",3668.5,19631875.07,21526875.07,137166.9,785966.337,891584.85,672117.81,773837.947800003,0.326530612244898,0.10973352
"599",3669,19700550.7,21595550.7,137535.6,788078.988,893981.4,673924.44,775950.604200002,0.326530612244898,0.11002848
"600",3669.5,19769410.67,21664410.67,137904.3,790191.639,896377.95,675731.07,778063.249800004,0.326530612244898,0.11032344
"601",3670,19838455,21733455,138273,792304.29,898774.5,677537.7,780175.906200003,0.326530612244898,0.1106184
"602",3670.5,19907683.67,21802683.67,138641.7,794416.941,901171.05,679344.33,782288.551800005,0.326530612244898,0.11091336
"603",3671,19977096.7,21872096.7,139010.4,796529.592,903567.6,681150.96,784401.2082,0.326530612244898,0.11120832
"604",3671.5,20046694.07,21941694.07,139379.1,798642.243,905964.15,682957.59,786513.853800002,0.326530612244898,0.11150328
"605",3672,20116475.8,22011475.8,139747.8,800754.894,908360.7,684764.22,788626.510200005,0.326530612244898,0.11179824
"606",3672.5,20186441.87,22081441.87,140116.5,802867.545,910757.25,686570.85,790739.155800004,0.326530612244898,0.1120932
"607",3673,20256592.3,22151592.3,140485.2,804980.196,913153.8,688377.48,792851.812200002,0.326530612244898,0.11238816
"608",3673.5,20326927.07,22221927.07,140853.9,807092.847,915550.35,690184.11,794964.457800001,0.326530612244898,0.11268312
"609",3674,20397446.2,22292446.2,141222.6,809205.498,917946.9,691990.74,797077.1142,0.326530612244898,0.11297808
"610",3674.5,20468149.67,22363149.67,141591.3,811318.149,920343.45,693797.37,799189.759800006,0.326530612244898,0.11327304
"611",3675,20539037.5,22434037.5,141960,813430.8,922740,695604,801302.416200001,0.326530612244898,0.113568
"612",3675.5,20610109.67,22505109.67,142328.7,815543.451,925136.55,697410.63,803415.061800003,0.326530612244898,0.11386296
"613",3676,20681366.2,22576366.2,142697.4,817656.102,927533.1,699217.26,805527.718200002,0.326530612244898,0.11415792
"614",3676.5,20752807.07,22647807.07,143066.1,819768.753,929929.65,701023.89,807640.363800004,0.326530612244898,0.11445288
"615",3677,20824432.3,22719432.3,143434.8,821881.404,932326.2,702830.52,809753.020200003,0.326530612244898,0.11474784
"616",3677.5,20896241.87,22791241.87,143803.5,823994.055,934722.75,704637.15,811865.665800001,0.326530612244898,0.1150428
"617",3678,20968235.8,22863235.8,144172.2,826106.706,937119.3,706443.78,813978.322200004,0.326530612244898,0.11533776
"618",3678.5,21040414.07,22935414.07,144540.9,828219.357,939515.85,708250.41,816090.967800003,0.326530612244898,0.11563272
"619",3679,21112776.7,23007776.7,144909.6,830332.008,941912.4,710057.04,818203.624200001,0.326530612244898,0.11592768
"620",3679.5,21185323.67,23080323.67,145278.3,832444.659,944308.95,711863.67,820316.269800004,0.326530612244898,0.11622264
"621",3680,21258055,23153055,145647,834557.31,946705.5,713670.3,822428.926200002,0.326530612244898,0.1165176
"622",3680.5,21330973.11,23225973.11,146025.42,836725.6566,949165.23,715524.558,824544.011800002,0.326530612244898,0.116820336
"623",3681,21404080.42,23299080.42,146403.85,838894.0605,951625.025,717378.865,826663.948200002,0.326530612244898,0.11712308
"624",3681.5,21477376.96,23372376.96,146782.27,841062.4071,954084.755,719233.123,828788.763800003,0.326530612244898,0.117425816
"625",3682,21550862.7,23445862.7,147160.7,843230.811,956544.55,721087.43,830918.430200003,0.326530612244898,0.11772856
"626",3682.5,21624537.66,23519537.66,147539.12,845399.1576,959004.28,722941.688,833052.965800002,0.326530612244898,0.118031296
"627",3683,21698401.82,23593401.82,147917.55,847567.5615,961464.075,724795.995,835192.352200001,0.326530612244898,0.11833404
"628",3683.5,21772455.21,23667455.21,148295.97,849735.9081,963923.805,726650.253,837336.617800001,0.326530612244898,0.118636776
"629",3684,21846697.8,23741697.8,148674.4,851904.312,966383.6,728504.56,839485.734200004,0.326530612244898,0.11893952
"630",3684.5,21921129.61,23816129.61,149052.82,854072.6586,968843.33,730358.818,841639.719800003,0.326530612244898,0.119242256
"631",3685,21995750.62,23890750.62,149431.25,856241.0625,971303.125,732213.125,843798.556200001,0.326530612244898,0.119545
"632",3685.5,22070560.86,23965560.86,149809.67,858409.4091,973762.855,734067.383,845962.2718,0.326530612244898,0.119847736
"633",3686,22145560.3,24040560.3,150188.1,860577.813,976222.65,735921.69,848129.520600002,0.326530612244898,0.12015048
"634",3686.5,22220748.96,24115748.96,150566.52,862746.1596,978682.38,737775.948,850297.902600002,0.326530612244898,0.120453216
"635",3687,22296126.82,24191126.82,150944.95,864914.5635,981142.175,739630.255,852466.268400002,0.326530612244898,0.12075596
"636",3687.5,22371693.91,24266693.91,151323.37,867082.9101,983601.905,741484.513,854634.650400002,0.326530612244898,0.121058696
"637",3688,22447450.2,24342450.2,151701.8,869251.314,986061.7,743338.82,856803.021600001,0.326530612244898,0.12136144
"638",3688.5,22523395.71,24418395.71,152080.22,871419.6606,988521.43,745193.078,858971.403600004,0.326530612244898,0.121664176
"639",3689,22599530.42,24494530.42,152458.65,873588.0645,990981.225,747047.385,861139.769400004,0.326530612244898,0.12196692
"640",3689.5,22675854.36,24570854.36,152837.07,875756.4111,993440.955,748901.643,863308.1514,0.326530612244898,0.122269656
"641",3690,22752367.5,24647367.5,153215.5,877924.815,995900.75,750755.95,865476.522600003,0.326530612244898,0.1225724
"642",3690.5,22829069.86,24724069.86,153593.92,880093.1616,998360.48,752610.208,867644.904600002,0.326530612244898,0.122875136
"643",3691,22905961.42,24800961.42,153972.35,882261.5655,1000820.275,754464.515,869813.270400003,0.326530612244898,0.12317788
"644",3691.5,22983042.21,24878042.21,154350.77,884429.9121,1003280.005,756318.773,871981.652400002,0.326530612244898,0.123480616
"645",3692,23060312.2,24955312.2,154729.2,886598.316,1005739.8,758173.08,874150.023600001,0.326530612244898,0.12378336
"646",3692.5,23137771.41,25032771.41,155107.62,888766.6626,1008199.53,760027.338,876318.405600004,0.326530612244898,0.124086096
"647",3693,23215419.82,25110419.82,155486.05,890935.0665,1010659.325,761881.645,878486.771400005,0.326530612244898,0.12438884
"648",3693.5,23293257.46,25188257.46,155864.47,893103.4131,1013119.055,763735.903,880655.153400004,0.326530612244898,0.124691576
"649",3694,23371284.3,25266284.3,156242.9,895271.817,1015578.85,765590.21,882823.524600003,0.326530612244898,0.12499432
"650",3694.5,23449500.36,25344500.36,156621.32,897440.1636,1018038.58,767444.468,884991.906600002,0.326530612244898,0.125297056
"651",3695,23527905.62,25422905.62,156999.75,899608.5675,1020498.375,769298.775,887160.272400003,0.326530612244898,0.1255998
"652",3695.5,23606500.11,25501500.11,157378.17,901776.9141,1022958.105,771153.033,889328.654400002,0.326530612244898,0.125902536
"653",3696,23685283.8,25580283.8,157756.6,903945.318,1025417.9,773007.34,891497.025600005,0.326530612244898,0.12620528
"654",3696.5,23764256.71,25659256.71,158135.02,906113.6646,1027877.63,774861.598,893665.407600004,0.326530612244898,0.126508016
"655",3697,23843418.82,25738418.82,158513.45,908282.0685,1030337.425,776715.905,895833.773400001,0.326530612244898,0.12681076
"656",3697.5,23922770.16,25817770.16,158891.87,910450.4151,1032797.155,778570.163,898002.155400004,0.326530612244898,0.127113496
"657",3698,24002310.7,25897310.7,159270.3,912618.819,1035256.95,780424.47,900170.526600003,0.326530612244898,0.12741624
"658",3698.5,24082040.46,25977040.46,159648.72,914787.1656,1037716.68,782278.728,902338.908600003,0.326530612244898,0.127718976
"659",3699,24161959.42,26056959.42,160027.15,916955.5695,1040176.475,784133.035,904507.274400003,0.326530612244898,0.12802172
"660",3699.5,24242067.61,26137067.61,160405.57,919123.9161,1042636.205,785987.293,906675.656400003,0.326530612244898,0.128324456
"661",3700,24322365,26217365,160784,921292.32,1045096,787841.6,908844.027600002,0.326530612244898,0.1286272
"662",3700.5,24402858.78,26297858.78,161191.12,923625.1176,1047742.28,789836.488,911019.579600003,0.326530612244898,0.128952896
"663",3701,24483556.12,26378556.12,161598.25,925957.9725,1050388.625,791831.425,913209.475400005,0.326530612244898,0.1292786
"664",3701.5,24564457.03,26459457.03,162005.37,928290.7701,1053034.905,793826.313,915413.727400005,0.326530612244898,0.129604296
"665",3702,24645561.5,26540561.5,162412.5,930623.625,1055681.25,795821.25,917632.328600001,0.326530612244898,0.12993
"666",3702.5,24726869.53,26621869.53,162819.62,932956.4226,1058327.53,797816.138,919865.280600004,0.326530612244898,0.130255696
"667",3703,24808381.12,26703381.12,163226.75,935289.2775,1060973.875,799811.075,922112.576400004,0.326530612244898,0.1305814
"668",3703.5,24890096.28,26785096.28,163633.87,937622.0751,1063620.155,801805.963,924374.228400003,0.326530612244898,0.130907096
"669",3704,24972015,26867015,164041,939954.93,1066266.5,803800.9,926650.229600001,0.326530612244898,0.1312328
"670",3704.5,25054137.28,26949137.28,164448.12,942287.7276,1068912.78,805795.788,928940.581600003,0.326530612244898,0.131558496
"671",3705,25136463.12,27031463.12,164855.25,944620.5825,1071559.125,807790.725,931245.277400002,0.326530612244898,0.1318842
"672",3705.5,25218992.53,27113992.53,165262.37,946953.3801,1074205.405,809785.613,933564.329400003,0.326530612244898,0.132209896
"673",3706,25301725.5,27196725.5,165669.5,949286.235,1076851.75,811780.55,935893.858800001,0.326530612244898,0.1325356
"674",3706.5,25384662.03,27279662.03,166076.62,951619.0326,1079498.03,813775.438,938226.686400004,0.326530612244898,0.132861296
"675",3707,25467802.12,27362802.12,166483.75,953951.8875,1082144.375,815770.375,940559.508600004,0.326530612244898,0.133187
"676",3707.5,25551145.78,27446145.78,166890.87,956284.6851,1084790.655,817765.263,942892.336200003,0.326530612244898,0.133512696
"677",3708,25634693,27529693,167298,958617.54,1087437,819760.2,945225.163800001,0.326530612244898,0.1338384
"678",3708.5,25718443.78,27613443.78,167705.12,960950.3376,1090083.28,821755.088,947557.991400003,0.326530612244898,0.134164096
"679",3709,25802398.12,27697398.12,168112.25,963283.1925,1092729.625,823750.025,949890.813600004,0.326530612244898,0.1344898
"680",3709.5,25886556.03,27781556.03,168519.37,965615.9901,1095375.905,825744.913,952223.641200002,0.326530612244898,0.134815496
"681",3710,25970917.5,27865917.5,168926.5,967948.845,1098022.25,827739.85,954556.468800001,0.326530612244898,0.1351412
"682",3710.5,26055482.53,27950482.53,169333.62,970281.6426,1100668.53,829734.738,956889.296400003,0.326530612244898,0.135466896
"683",3711,26140251.12,28035251.12,169740.75,972614.4975,1103314.875,831729.675,959222.118600003,0.326530612244898,0.1357926
"684",3711.5,26225223.28,28120223.28,170147.87,974947.2951,1105961.155,833724.563,961554.946200002,0.326530612244898,0.136118296
"685",3800,1e+09,1001895000,250000,1432500,1625000,1225000,63047790.6283121,0.326530612244898,0.2
